ech5
circ
Time , Disp, Load , Pressure, Volume
0.12 , 0.032 , -0.087 , -0.616 , 0
0.19 , 0.08 , -0.087 , -0.616 , 0
0.29 , 0.143 , -0.087 , -0.537 , 0
0.43 , 0.229 , -0.081 , -0.472 , 0
0.5 , 0.271 , -0.081 , -0.472 , 0
0.6 , 0.333 , -0.096 , -0.616 , 0
0.7 , 0.393 , -0.087 , -0.616 , 0
0.79 , 0.455 , -0.085 , -0.564 , 0
0.94 , 0.546 , -0.085 , -0.564 , 0
1.02 , 0.594 , -0.087 , -0.511 , 0
1.12 , 0.656 , -0.085 , -0.642 , 0
1.2 , 0.705 , -0.085 , -0.642 , 0
1.3 , 0.768 , -0.085 , -0.708 , 0
1.44 , 0.858 , -0.083 , -0.485 , 0
1.51 , 0.901 , -0.083 , -0.485 , 0
1.6 , 0.962 , -0.096 , -0.616 , 0
1.7 , 1.018 , -0.089 , -0.459 , 0
1.8 , 1.081 , -0.072 , -0.734 , 0
1.94 , 1.17 , -0.072 , -0.734 , 0
2.01 , 1.216 , -0.077 , -0.472 , 0
2.11 , 1.276 , -0.089 , -0.55 , 0
2.2 , 1.33 , -0.089 , -0.55 , 0
2.3 , 1.396 , -0.077 , -0.695 , 0
2.4 , 1.456 , -0.081 , -0.446 , 0
2.5 , 1.518 , -0.087 , -0.537 , 0
2.64 , 1.608 , -0.087 , -0.537 , 0
2.71 , 1.652 , -0.079 , -0.682 , 0
2.8 , 1.712 , -0.089 , -0.76 , 0
2.9 , 1.768 , -0.089 , -0.76 , 0
3.0 , 1.831 , -0.098 , -0.773 , 0
3.14 , 1.921 , -0.085 , -0.721 , 0
3.22 , 1.968 , -0.085 , -0.721 , 0
3.31 , 2.03 , -0.081 , -0.668 , 0
3.4 , 2.08 , -0.085 , -0.799 , 0
3.5 , 2.143 , -0.102 , -0.721 , 0
3.64 , 2.23 , -0.102 , -0.721 , 0
3.7 , 2.271 , -0.077 , -0.734 , 0
3.8 , 2.331 , -0.087 , -0.839 , 0
3.89 , 2.393 , -0.087 , -0.839 , 0
4.0 , 2.456 , -0.072 , -0.786 , 0
4.14 , 2.543 , -0.094 , -0.839 , 0
4.2 , 2.583 , -0.094 , -0.878 , 0
4.3 , 2.644 , -0.094 , -0.878 , 0
4.4 , 2.705 , -0.07 , -0.97 , 0
4.5 , 2.768 , -0.098 , -0.852 , 0
4.64 , 2.859 , -0.098 , -0.852 , 0
4.71 , 2.899 , -0.089 , -0.786 , 0
4.8 , 2.959 , -0.079 , -0.891 , 0
4.9 , 3.018 , -0.089 , -0.682 , 0
5.0 , 3.082 , -0.089 , -0.682 , 0
5.1 , 3.143 , -0.077 , -0.865 , 0
5.2 , 3.205 , -0.1 , -0.865 , 0
5.34 , 3.295 , -0.1 , -0.865 , 0
5.41 , 3.341 , -0.087 , -0.917 , 0
5.51 , 3.402 , -0.089 , -0.878 , 0
5.6 , 3.455 , -0.089 , -0.878 , 0
5.7 , 3.518 , -0.098 , -1.009 , 0
5.83 , 3.603 , -0.085 , -1.062 , 0
5.9 , 3.648 , -0.081 , -1.101 , 0
6.0 , 3.708 , -0.081 , -1.101 , 0
6.1 , 3.768 , -0.087 , -1.062 , 0
6.2 , 3.83 , -0.079 , -1.153 , 0
6.34 , 3.919 , -0.079 , -1.153 , 0
6.4 , 3.96 , -0.085 , -0.996 , 0
6.5 , 4.018 , -0.098 , -0.865 , 0
6.6 , 4.08 , -0.094 , -1.088 , 0
6.7 , 4.143 , -0.094 , -1.088 , 0
6.86 , 4.234 , -0.096 , -1.311 , 0
6.93 , 4.289 , -0.096 , -1.18 , 0
7.03 , 4.35 , -0.096 , -1.18 , 0
7.1 , 4.393 , -0.091 , -1.193 , 0
7.2 , 4.455 , -0.089 , -1.324 , 0
7.34 , 4.544 , -0.089 , -1.324 , 0
7.41 , 4.589 , -0.089 , -1.455 , 0
7.51 , 4.649 , -0.098 , -1.389 , 0
7.6 , 4.705 , -0.083 , -1.297 , 0
7.7 , 4.768 , -0.083 , -1.297 , 0
7.84 , 4.855 , -0.087 , -1.337 , 0
7.9 , 4.898 , -0.085 , -1.52 , 0
8.0 , 4.961 , -0.085 , -1.52 , 0
8.1 , 5.018 , -0.094 , -1.402 , 0
8.2 , 5.081 , -0.085 , -1.638 , 0
8.3 , 5.143 , -0.094 , -1.835 , 0
8.4 , 5.205 , -0.094 , -1.835 , 0
8.54 , 5.294 , -0.077 , -1.874 , 0
8.62 , 5.344 , -0.098 , -1.887 , 0
8.72 , 5.405 , -0.098 , -1.887 , 0
8.8 , 5.455 , -0.089 , -1.73 , 0
8.9 , 5.518 , -0.089 , -1.704 , 0
9.04 , 5.607 , -0.089 , -1.704 , 0
9.11 , 5.648 , -0.085 , -1.874 , 0
9.2 , 5.708 , -0.091 , -1.861 , 0
9.3 , 5.768 , -0.072 , -1.809 , 0
9.4 , 5.83 , -0.072 , -1.809 , 0
9.54 , 5.921 , -0.094 , -1.809 , 0
9.61 , 5.962 , -0.094 , -1.861 , 0
9.7 , 6.019 , -0.094 , -1.861 , 0
9.8 , 6.08 , -0.085 , -1.874 , 0
9.9 , 6.143 , -0.091 , -1.874 , 0
10.0 , 6.205 , -0.091 , -1.809 , 0
10.1 , 6.268 , -0.091 , -1.809 , 0
10.2 , 6.33 , -0.094 , -2.018 , 0
10.3 , 6.393 , -0.091 , -1.835 , 0
10.44 , 6.481 , -0.091 , -1.835 , 0
10.51 , 6.524 , -0.085 , -1.769 , 0
10.61 , 6.586 , -0.094 , -2.005 , 0
10.7 , 6.643 , -0.083 , -1.796 , 0
10.8 , 6.705 , -0.083 , -1.796 , 0
10.94 , 6.795 , -0.087 , -2.162 , 0
11.02 , 6.843 , -0.087 , -2.031 , 0
11.12 , 6.904 , -0.087 , -2.031 , 0
11.2 , 6.955 , -0.096 , -1.966 , 0
11.3 , 7.022 , -0.087 , -2.018 , 0
11.4 , 7.08 , -0.087 , -2.018 , 0
11.5 , 7.143 , -0.089 , -2.084 , 0
11.64 , 7.231 , -0.081 , -1.887 , 0
11.71 , 7.274 , -0.096 , -2.11 , 0
11.81 , 7.335 , -0.096 , -2.11 , 0
11.9 , 7.393 , -0.089 , -1.966 , 0
12.0 , 7.456 , -0.087 , -2.018 , 0
12.1 , 7.518 , -0.087 , -2.018 , 0
12.2 , 7.58 , -0.083 , -2.202 , 0
12.3 , 7.643 , -0.096 , -2.11 , 0
12.4 , 7.705 , -0.074 , -2.136 , 0
12.54 , 7.794 , -0.074 , -2.136 , 0
12.61 , 7.837 , -0.072 , -2.071 , 0
12.71 , 7.901 , -0.096 , -2.215 , 0
12.8 , 7.955 , -0.096 , -2.215 , 0
12.9 , 8.018 , -0.077 , -2.031 , 0
13.04 , 8.109 , -0.087 , -2.058 , 0
13.12 , 8.156 , -0.094 , -2.346 , 0
13.23 , 8.222 , -0.094 , -2.346 , 0
13.3 , 8.268 , -0.081 , -2.018 , 0
13.4 , 8.333 , -0.083 , -2.097 , 0
13.5 , 8.393 , -0.083 , -2.097 , 0
13.6 , 8.456 , -0.085 , -2.32 , 0
13.73 , 8.543 , -0.081 , -2.149 , 0
13.81 , 8.589 , -0.081 , -2.149 , 0
13.91 , 8.652 , -0.087 , -2.136 , 0
14.0 , 8.705 , -0.087 , -2.241 , 0
14.1 , 8.768 , -0.094 , -2.228 , 0
14.2 , 8.83 , -0.094 , -2.228 , 0
14.31 , 8.898 , -0.081 , -2.267 , 0
14.4 , 8.956 , -0.091 , -2.084 , 0
14.5 , 9.019 , -0.091 , -2.084 , 0
14.6 , 9.08 , -0.089 , -2.267 , 0
14.7 , 9.143 , -0.085 , -2.189 , 0
14.84 , 9.229 , -0.085 , -2.189 , 0
14.91 , 9.275 , -0.102 , -2.215 , 0
15.01 , 9.339 , -0.104 , -2.32 , 0
15.1 , 9.392 , -0.077 , -2.28 , 0
15.2 , 9.457 , -0.077 , -2.28 , 0
15.3 , 9.518 , -0.085 , -2.333 , 0
15.4 , 9.581 , -0.096 , -2.307 , 0
15.5 , 9.643 , -0.096 , -2.307 , 0
15.61 , 9.709 , -0.087 , -2.149 , 0
15.7 , 9.768 , -0.087 , -2.241 , 0
15.8 , 9.831 , -0.083 , -2.215 , 0
15.9 , 9.892 , -0.083 , -2.215 , 0
16.01 , 9.959 , -0.089 , -2.307 , 0
16.1 , 10.018 , -0.085 , -2.294 , 0
16.2 , 10.081 , -0.085 , -2.294 , 0
16.3 , 10.142 , -0.087 , -2.294 , 0
16.4 , 10.207 , -0.072 , -2.529 , 0
16.5 , 10.268 , -0.081 , -2.412 , 0
16.61 , 10.335 , -0.081 , -2.412 , 0
16.7 , 10.392 , -0.091 , -2.176 , 0
16.8 , 10.456 , -0.083 , -2.464 , 0
16.9 , 10.518 , -0.083 , -2.464 , 0
17.0 , 10.581 , -0.087 , -2.438 , 0
17.1 , 10.642 , -0.068 , -2.516 , 0
17.2 , 10.708 , -0.068 , -2.516 , 0
17.3 , 10.768 , -0.091 , -2.346 , 0
17.4 , 10.831 , -0.094 , -2.503 , 0
17.5 , 10.893 , -0.096 , -2.398 , 0
17.61 , 10.96 , -0.096 , -2.398 , 0
17.7 , 11.018 , -0.085 , -2.49 , 0
17.8 , 11.081 , -0.081 , -2.425 , 0
17.9 , 11.143 , -0.081 , -2.425 , 0
18.0 , 11.205 , -0.089 , -2.569 , 0
18.14 , 11.292 , -0.1 , -2.425 , 0
18.21 , 11.338 , -0.111 , -2.346 , 0
18.31 , 11.402 , -0.111 , -2.346 , 0
18.4 , 11.455 , -0.096 , -2.674 , 0
18.5 , 11.521 , -0.091 , -2.569 , 0
18.6 , 11.58 , -0.091 , -2.569 , 0
18.7 , 11.643 , -0.085 , -2.661 , 0
18.8 , 11.705 , -0.098 , -2.608 , 0
18.91 , 11.772 , -0.098 , -2.608 , 0
19.0 , 11.83 , -0.089 , -2.7 , 0
19.11 , 11.9 , -0.089 , -2.687 , 0
19.2 , 11.955 , -0.085 , -2.451 , 0
19.3 , 12.018 , -0.085 , -2.451 , 0
19.4 , 12.08 , -0.085 , -2.464 , 0
19.5 , 12.144 , -0.085 , -2.464 , 0
19.6 , 12.205 , -0.085 , -2.464 , 0
19.72 , 12.276 , -0.081 , -2.608 , 0
19.8 , 12.33 , -0.074 , -2.778 , 0
19.9 , 12.395 , -0.087 , -2.634 , 0
20.0 , 12.455 , -0.087 , -2.634 , 0
20.1 , 12.519 , -0.072 , -2.608 , 0
20.2 , 12.58 , -0.072 , -2.634 , 0
20.3 , 12.643 , -0.072 , -2.634 , 0
20.4 , 12.705 , -0.091 , -2.844 , 0
20.5 , 12.77 , -0.077 , -2.647 , 0
20.6 , 12.83 , -0.068 , -2.726 , 0
20.7 , 12.893 , -0.068 , -2.726 , 0
20.8 , 12.956 , -0.1 , -2.778 , 0
20.9 , 13.019 , -0.102 , -2.87 , 0
21.0 , 13.08 , -0.102 , -2.87 , 0
21.1 , 13.143 , -0.079 , -2.936 , 0
21.24 , 13.228 , -0.089 , -2.857 , 0
21.3 , 13.271 , -0.089 , -2.857 , 0
21.4 , 13.331 , -0.083 , -2.818 , 0
21.5 , 13.393 , -0.091 , -2.949 , 0
21.6 , 13.455 , -0.079 , -2.91 , 0
21.74 , 13.5 , -0.079 , -2.91 , 0
21.84 , 13.5 , -0.085 , -2.988 , 0
21.92 , 13.5 , -0.091 , -2.975 , 0
22.0 , 13.5 , -0.091 , -2.975 , 0
22.09 , 13.5 , -0.079 , -2.962 , 0
22.2 , 13.5 , -0.077 , -2.792 , 0
22.29 , 13.5 , -0.094 , -2.857 , 0
22.4 , 13.5 , -0.094 , -2.857 , 0
22.5 , 13.5 , -0.083 , -2.949 , 0
22.6 , 13.5 , -0.066 , -2.988 , 0
22.7 , 13.5 , -0.066 , -2.988 , 0
22.8 , 13.5 , -0.102 , -2.962 , 0
22.9 , 13.5 , -0.079 , -2.818 , 0
23.0 , 13.5 , -0.079 , -2.818 , 0
23.1 , 13.5 , -0.094 , -2.923 , 0
23.2 , 13.5 , -0.068 , -3.106 , 0
23.3 , 13.5 , -0.085 , -3.054 , 0
23.4 , 13.5 , -0.085 , -3.054 , 0
23.5 , 13.5 , -0.091 , -3.119 , 0
23.6 , 13.5 , -0.074 , -2.883 , 0
23.7 , 13.5 , -0.074 , -2.883 , 0
23.8 , 13.5 , -0.091 , -3.145 , 0
23.9 , 13.5 , -0.085 , -3.054 , 0
24.0 , 13.5 , -0.087 , -2.857 , 0
24.1 , 13.5 , -0.087 , -2.857 , 0
24.2 , 13.5 , -0.089 , -2.792 , 0
24.3 , 13.5 , -0.089 , -2.844 , 0
24.4 , 13.5 , -0.089 , -2.844 , 0
24.5 , 13.5 , -0.089 , -2.896 , 0
24.6 , 13.5 , -0.087 , -2.87 , 0
24.7 , 13.5 , -0.087 , -2.87 , 0
24.8 , 13.5 , -0.085 , -2.975 , 0
24.9 , 13.5 , -0.098 , -2.988 , 0
25.0 , 13.5 , -0.094 , -3.014 , 0
25.1 , 13.5 , -0.094 , -3.014 , 0
25.2 , 13.5 , -0.072 , -2.923 , 0
25.3 , 13.5 , -0.079 , -2.844 , 0
25.4 , 13.5 , -0.079 , -2.844 , 0
25.5 , 13.5 , -0.087 , -3.001 , 0
25.6 , 13.5 , -0.087 , -2.805 , 0
25.7 , 13.5 , -0.089 , -2.883 , 0
25.8 , 13.5 , -0.089 , -2.883 , 0
25.9 , 13.5 , -0.083 , -2.949 , 0
26.0 , 13.5 , -0.091 , -2.831 , 0
26.1 , 13.5 , -0.091 , -2.831 , 0
26.2 , 13.5 , -0.083 , -2.91 , 0
26.3 , 13.5 , -0.079 , -3.08 , 0
26.4 , 13.5 , -0.091 , -3.119 , 0
26.5 , 13.5 , -0.091 , -3.119 , 0
26.6 , 13.5 , -0.089 , -3.027 , 0
26.7 , 13.5 , -0.083 , -3.067 , 0
26.8 , 13.5 , -0.083 , -3.067 , 0
26.9 , 13.5 , -0.091 , -3.014 , 0
27.0 , 13.5 , -0.089 , -2.765 , 0
27.1 , 13.5 , -0.089 , -2.765 , 0
27.2 , 13.5 , -0.087 , -2.844 , 0
27.29 , 13.5 , -0.081 , -2.975 , 0
27.4 , 13.5 , -0.094 , -2.857 , 0
27.5 , 13.5 , -0.094 , -2.857 , 0
27.6 , 13.5 , -0.094 , -2.91 , 0
27.7 , 13.5 , -0.085 , -2.896 , 0
27.8 , 13.5 , -0.085 , -2.896 , 0
27.9 , 13.5 , -0.074 , -2.962 , 0
28.0 , 13.5 , -0.074 , -2.857 , 0
28.1 , 13.5 , -0.098 , -2.844 , 0
28.2 , 13.5 , -0.098 , -2.844 , 0
28.3 , 13.5 , -0.081 , -2.975 , 0
28.4 , 13.5 , -0.085 , -2.818 , 0
28.5 , 13.5 , -0.085 , -2.818 , 0
28.6 , 13.5 , -0.083 , -3.001 , 0
28.7 , 13.5 , -0.079 , -2.752 , 0
28.8 , 13.5 , -0.079 , -2.752 , 0
28.9 , 13.5 , -0.091 , -2.988 , 0
29.0 , 13.5 , -0.085 , -2.739 , 0
29.1 , 13.5 , -0.087 , -2.87 , 0
29.2 , 13.5 , -0.087 , -2.87 , 0
29.3 , 13.5 , -0.091 , -2.87 , 0
29.4 , 13.5 , -0.083 , -2.87 , 0
29.5 , 13.5 , -0.083 , -2.87 , 0
29.6 , 13.5 , -0.083 , -3.027 , 0
29.7 , 13.5 , -0.089 , -2.87 , 0
29.8 , 13.5 , -0.089 , -2.778 , 0
29.9 , 13.5 , -0.089 , -2.778 , 0
30.0 , 13.5 , -0.1 , -2.896 , 0
30.1 , 13.5 , -0.089 , -2.726 , 0
30.2 , 13.5 , -0.089 , -2.726 , 0
30.3 , 13.5 , -0.094 , -3.067 , 0
30.41 , 13.5 , -0.077 , -2.844 , 0
30.5 , 13.5 , -0.077 , -2.844 , 0
30.6 , 13.5 , -0.085 , -3.172 , 0
30.7 , 13.5 , -0.085 , -2.962 , 0
30.81 , 13.5 , -0.085 , -2.962 , 0
30.9 , 13.5 , -0.079 , -2.7 , 0
31.0 , 13.5 , -0.1 , -2.739 , 0
31.1 , 13.5 , -0.072 , -2.687 , 0
31.2 , 13.5 , -0.072 , -2.687 , 0
31.3 , 13.5 , -0.096 , -2.739 , 0
31.4 , 13.5 , -0.074 , -2.896 , 0
31.5 , 13.5 , -0.083 , -2.936 , 0
31.6 , 13.5 , -0.083 , -2.936 , 0
31.7 , 13.5 , -0.089 , -2.923 , 0
31.8 , 13.5 , -0.091 , -2.883 , 0
31.91 , 13.5 , -0.091 , -2.883 , 0
32.01 , 13.5 , -0.079 , -2.818 , 0
32.1 , 13.5 , -0.096 , -2.87 , 0
32.2 , 13.5 , -0.077 , -2.91 , 0
32.3 , 13.5 , -0.077 , -2.91 , 0
32.4 , 13.5 , -0.087 , -2.818 , 0
32.5 , 13.5 , -0.094 , -2.831 , 0
32.6 , 13.5 , -0.094 , -2.831 , 0
32.7 , 13.5 , -0.089 , -2.91 , 0
32.8 , 13.5 , -0.068 , -2.988 , 0
32.9 , 13.5 , -0.068 , -2.988 , 0
33.0 , 13.5 , -0.083 , -2.962 , 0
33.1 , 13.5 , -0.094 , -2.883 , 0
33.2 , 13.5 , -0.094 , -2.883 , 0
33.3 , 13.5 , -0.094 , -2.883 , 0
33.41 , 13.5 , -0.087 , -2.949 , 0
33.5 , 13.5 , -0.094 , -2.752 , 0
33.6 , 13.5 , -0.094 , -2.752 , 0
33.7 , 13.5 , -0.087 , -2.713 , 0
33.8 , 13.5 , -0.098 , -2.91 , 0
33.91 , 13.5 , -0.089 , -2.792 , 0
34.0 , 13.5 , -0.089 , -2.792 , 0
34.1 , 13.5 , -0.077 , -2.831 , 0
34.21 , 13.5 , -0.079 , -3.014 , 0
34.3 , 13.5 , -0.079 , -3.014 , 0
34.4 , 13.5 , -0.089 , -2.752 , 0
34.51 , 13.5 , -0.104 , -2.923 , 0
34.6 , 13.5 , -0.104 , -2.923 , 0

End Pause

34.71 , 13.5 , -0.081 , -2.765 , 0
34.8 , 13.5 , -0.083 , -2.739 , 0
34.9 , 13.5 , -0.096 , -2.752 , 0
35.0 , 13.5 , -0.096 , -2.752 , 0
35.1 , 13.5 , -0.096 , -2.923 , 0
35.21 , 13.5 , -0.089 , -2.713 , 0
35.3 , 13.5 , -0.089 , -2.713 , 0
35.4 , 13.5 , -0.096 , -2.189 , 0
35.5 , 13.5 , -0.077 , -1.822 , 0
35.6 , 13.5 , -0.094 , -1.415 , 0
35.7 , 13.5 , -0.094 , -1.415 , 0
35.8 , 13.5 , -0.091 , -0.839 , 0
35.9 , 13.5 , -0.096 , -0.446 , 0
36.01 , 13.5 , -0.096 , -0.446 , 0
36.1 , 13.5 , -0.085 , -0.013 , 0
36.21 , 13.5 , -0.077 , 0.079 , 0
36.3 , 13.5 , -0.077 , 0.079 , 0
36.4 , 13.5 , -0.085 , 0.826 , 0
36.51 , 13.5 , -0.074 , 1.193 , 0
36.6 , 13.5 , -0.083 , 1.363 , 0
36.7 , 13.5 , -0.083 , 1.363 , 0
36.8 , 13.5 , -0.096 , 1.533 , 0
36.9 , 13.5 , -0.098 , 1.769 , 0
37.01 , 13.5 , -0.098 , 1.769 , 0
37.1 , 13.5 , -0.094 , 2.307 , 0
37.2 , 13.5 , -0.083 , 2.647 , 0
37.3 , 13.5 , -0.091 , 2.687 , 0
37.4 , 13.5 , -0.091 , 2.687 , 0
37.51 , 13.5 , -0.089 , 2.752 , 0
37.6 , 13.5 , -0.079 , 3.041 , 0
37.7 , 13.5 , -0.079 , 3.041 , 0
37.81 , 13.5 , -0.081 , 3.539 , 0
37.9 , 13.5 , -0.072 , 4.089 , 0
38.0 , 13.5 , -0.089 , 4.548 , 0
38.1 , 13.5 , -0.089 , 4.548 , 0
38.2 , 13.5 , -0.092 , 4.836 , 0
38.3 , 13.5 , -0.081 , 5.413 , 0
38.4 , 13.5 , -0.081 , 5.413 , 0
38.51 , 13.5 , -0.087 , 5.976 , 0
38.61 , 13.5 , -0.079 , 6.238 , 0
38.7 , 13.5 , -0.079 , 6.238 , 0
38.8 , 13.5 , -0.087 , 6.92 , 0
38.91 , 13.5 , -0.094 , 7.339 , 0
39.0 , 13.5 , -0.094 , 7.798 , 0
39.1 , 13.5 , -0.094 , 7.798 , 0
39.2 , 13.5 , -0.092 , 8.519 , 0
39.31 , 13.5 , -0.085 , 8.938 , 0
39.4 , 13.5 , -0.085 , 8.938 , 0
39.5 , 13.5 , -0.089 , 9.24 , 0
39.61 , 13.5 , -0.089 , 9.777 , 0
39.71 , 13.5 , -0.085 , 10.275 , 0
39.8 , 13.5 , -0.085 , 10.275 , 0
39.91 , 13.5 , -0.094 , 10.891 , 0
40.01 , 13.5 , -0.087 , 11.428 , 0
40.11 , 13.5 , -0.087 , 11.428 , 0
40.21 , 13.5 , -0.092 , 11.782 , 0
40.3 , 13.5 , -0.085 , 12.372 , 0
40.41 , 13.5 , -0.085 , 12.372 , 0
40.51 , 13.5 , -0.087 , 12.792 , 0
40.6 , 13.5 , -0.085 , 13.355 , 0
40.71 , 13.5 , -0.083 , 13.892 , 0
40.81 , 13.5 , -0.083 , 13.892 , 0
40.91 , 13.5 , -0.092 , 14.39 , 0
41.0 , 13.5 , -0.096 , 14.888 , 0
41.1 , 13.5 , -0.096 , 14.888 , 0
41.21 , 13.5 , -0.083 , 15.518 , 0
41.3 , 13.5 , -0.092 , 15.976 , 0
41.4 , 13.5 , -0.081 , 16.566 , 0
41.5 , 13.5 , -0.081 , 16.566 , 0
41.61 , 13.5 , -0.087 , 17.025 , 0
41.7 , 13.5 , -0.075 , 17.523 , 0
41.8 , 13.5 , -0.075 , 17.523 , 0
41.91 , 13.5 , -0.1 , 18.099 , 0
42.01 , 13.5 , -0.081 , 18.65 , 0
42.1 , 13.5 , -0.096 , 19.227 , 0
42.2 , 13.5 , -0.096 , 19.227 , 0
42.3 , 13.5 , -0.096 , 19.672 , 0
42.41 , 13.5 , -0.085 , 20.065 , 0
42.51 , 13.5 , -0.085 , 20.065 , 0
42.6 , 13.5 , -0.1 , 20.576 , 0
42.71 , 13.5 , -0.092 , 21.153 , 0
42.81 , 13.5 , -0.092 , 21.153 , 0
42.91 , 13.5 , -0.1 , 21.638 , 0
43.0 , 13.5 , -0.085 , 21.874 , 0
43.1 , 13.5 , -0.094 , 22.687 , 0
43.2 , 13.5 , -0.094 , 22.687 , 0
43.31 , 13.5 , -0.09 , 23.303 , 0
43.41 , 13.5 , -0.105 , 23.499 , 0
43.51 , 13.5 , -0.105 , 23.499 , 0
43.61 , 13.5 , -0.094 , 23.971 , 0
43.7 , 13.5 , -0.079 , 24.272 , 0
43.81 , 13.5 , -0.088 , 24.954 , 0
43.91 , 13.5 , -0.088 , 24.954 , 0
44.01 , 13.5 , -0.085 , 25.085 , 0
44.11 , 13.5 , -0.077 , 25.688 , 0
44.21 , 13.5 , -0.077 , 25.688 , 0
44.31 , 13.5 , -0.09 , 26.212 , 0
44.41 , 13.5 , -0.098 , 26.697 , 0
44.51 , 13.5 , -0.098 , 26.697 , 0
44.6 , 13.5 , -0.086 , 27.195 , 0
44.71 , 13.5 , -0.096 , 27.444 , 0
44.81 , 13.5 , -0.088 , 27.89 , 0
44.9 , 13.5 , -0.088 , 27.89 , 0
45.01 , 13.5 , -0.096 , 28.427 , 0
45.11 , 13.5 , -0.083 , 28.742 , 0
45.21 , 13.5 , -0.083 , 28.742 , 0
45.31 , 13.5 , -0.077 , 29.318 , 0
45.41 , 13.5 , -0.094 , 29.882 , 0
45.51 , 13.5 , -0.092 , 30.576 , 0
45.6 , 13.5 , -0.092 , 30.576 , 0
45.71 , 13.5 , -0.094 , 30.852 , 0
45.81 , 13.5 , -0.09 , 31.232 , 0
45.91 , 13.5 , -0.09 , 31.232 , 0
46.01 , 13.5 , -0.073 , 31.835 , 0
46.11 , 13.5 , -0.094 , 32.32 , 0
46.21 , 13.5 , -0.094 , 32.32 , 0
46.31 , 13.5 , -0.094 , 32.686 , 0
46.41 , 13.5 , -0.09 , 33.211 , 0
46.51 , 13.5 , -0.088 , 33.774 , 0
46.6 , 13.5 , -0.088 , 33.774 , 0
46.71 , 13.5 , -0.09 , 34.233 , 0
46.81 , 13.5 , -0.086 , 34.836 , 0
46.91 , 13.5 , -0.086 , 34.836 , 0
47.01 , 13.5 , -0.098 , 35.268 , 0
47.11 , 13.5 , -0.098 , 35.675 , 0
47.21 , 13.5 , -0.088 , 36.055 , 0
47.3 , 13.5 , -0.088 , 36.055 , 0
47.41 , 13.5 , -0.088 , 35.911 , 0
47.5 , 13.5 , -0.096 , 36.225 , 0
47.61 , 13.5 , -0.096 , 36.225 , 0
47.71 , 13.5 , -0.088 , 36.828 , 0
47.8 , 13.5 , -0.086 , 37.523 , 0
47.91 , 13.5 , -0.081 , 37.811 , 0
48.0 , 13.5 , -0.081 , 37.811 , 0
48.11 , 13.5 , -0.084 , 38.27 , 0
48.21 , 13.5 , -0.105 , 38.702 , 0
48.31 , 13.5 , -0.105 , 38.702 , 0
48.41 , 13.5 , -0.086 , 39.174 , 0
48.51 , 13.5 , -0.09 , 39.62 , 0
48.61 , 13.5 , -0.09 , 39.62 , 0
48.71 , 13.5 , -0.09 , 40.157 , 0
48.81 , 13.5 , -0.081 , 40.642 , 0
48.91 , 13.5 , -0.086 , 41.009 , 0
49.01 , 13.5 , -0.086 , 41.009 , 0
49.11 , 13.5 , -0.09 , 41.625 , 0
49.21 , 13.5 , -0.094 , 41.992 , 0
49.31 , 13.5 , -0.094 , 41.992 , 0
49.41 , 13.5 , -0.082 , 42.634 , 0
49.51 , 13.5 , -0.084 , 43.132 , 0
49.61 , 13.5 , -0.086 , 43.617 , 0
49.71 , 13.5 , -0.086 , 43.617 , 0
49.81 , 13.5 , -0.086 , 44.167 , 0
49.91 , 13.5 , -0.101 , 44.403 , 0
50.0 , 13.5 , -0.101 , 44.403 , 0
50.11 , 13.5 , -0.086 , 45.137 , 0
50.21 , 13.5 , -0.086 , 45.609 , 0
50.31 , 13.5 , -0.086 , 45.609 , 0
50.41 , 13.5 , -0.084 , 45.989 , 0
50.51 , 13.5 , -0.088 , 46.526 , 0
50.61 , 13.5 , -0.077 , 46.828 , 0
50.71 , 13.5 , -0.077 , 46.828 , 0
50.81 , 13.5 , -0.094 , 47.352 , 0
50.91 , 13.5 , -0.088 , 47.942 , 0
51.01 , 13.5 , -0.088 , 47.942 , 0
51.11 , 13.5 , -0.097 , 48.374 , 0
51.21 , 13.5 , -0.075 , 48.99 , 0
51.31 , 13.5 , -0.084 , 49.423 , 0
51.41 , 13.5 , -0.084 , 49.423 , 0
51.51 , 13.5 , -0.092 , 49.777 , 0
51.61 , 13.5 , -0.086 , 50.262 , 0
51.71 , 13.5 , -0.086 , 50.262 , 0
51.81 , 13.5 , -0.101 , 50.904 , 0
51.91 , 13.5 , -0.088 , 51.52 , 0
52.0 , 13.5 , -0.088 , 51.52 , 0
52.11 , 13.5 , -0.086 , 52.11 , 0
52.21 , 13.5 , -0.094 , 52.66 , 0
52.31 , 13.5 , -0.088 , 52.83 , 0
52.41 , 13.5 , -0.088 , 52.83 , 0
52.51 , 13.5 , -0.075 , 53.315 , 0
52.61 , 13.5 , -0.099 , 53.827 , 0
52.71 , 13.5 , -0.099 , 53.827 , 0
52.81 , 13.5 , -0.092 , 54.39 , 0
52.91 , 13.5 , -0.088 , 54.98 , 0
53.01 , 13.5 , -0.092 , 55.452 , 0
53.11 , 13.5 , -0.092 , 55.452 , 0
53.21 , 13.5 , -0.092 , 55.963 , 0
53.31 , 13.5 , -0.099 , 56.422 , 0
53.41 , 13.5 , -0.099 , 56.422 , 0
53.5 , 13.5 , -0.08 , 56.789 , 0
53.61 , 13.5 , -0.086 , 57.418 , 0
53.7 , 13.5 , -0.073 , 57.811 , 0
53.81 , 13.5 , -0.073 , 57.811 , 0
53.91 , 13.5 , -0.09 , 58.152 , 0
54.01 , 13.5 , -0.095 , 58.689 , 0
54.11 , 13.5 , -0.095 , 58.689 , 0
54.21 , 13.5 , -0.078 , 59.043 , 0
54.31 , 13.5 , -0.069 , 59.646 , 0
54.41 , 13.5 , -0.069 , 59.646 , 0
54.51 , 13.5 , -0.082 , 59.947 , 0
54.61 , 13.5 , -0.082 , 60.327 , 0
54.71 , 13.5 , -0.09 , 60.602 , 0
54.81 , 13.5 , -0.09 , 60.602 , 0
54.91 , 13.5 , -0.084 , 61.363 , 0
55.01 , 13.5 , -0.086 , 61.572 , 0
55.11 , 13.5 , -0.086 , 61.572 , 0
55.21 , 13.5 , -0.084 , 62.306 , 0
55.31 , 13.5 , -0.08 , 62.608 , 0
55.41 , 13.5 , -0.088 , 63.053 , 0
55.51 , 13.5 , -0.088 , 63.053 , 0
55.61 , 13.5 , -0.088 , 63.708 , 0
55.71 , 13.5 , -0.09 , 64.01 , 0
55.81 , 13.5 , -0.09 , 64.01 , 0
55.91 , 13.5 , -0.08 , 64.534 , 0
56.01 , 13.5 , -0.088 , 64.927 , 0
56.11 , 13.5 , -0.088 , 64.927 , 0
56.21 , 13.5 , -0.095 , 65.57 , 0
56.31 , 13.5 , -0.082 , 65.753 , 0
56.41 , 13.5 , -0.086 , 66.33 , 0
56.51 , 13.5 , -0.086 , 66.33 , 0
56.61 , 13.5 , -0.09 , 66.553 , 0
56.71 , 13.5 , -0.076 , 67.09 , 0
56.81 , 13.5 , -0.076 , 67.09 , 0
56.91 , 13.5 , -0.093 , 67.483 , 0
57.01 , 13.5 , -0.067 , 68.086 , 0
57.11 , 13.5 , -0.086 , 68.584 , 0
57.21 , 13.5 , -0.086 , 68.584 , 0
57.31 , 13.5 , -0.09 , 69.213 , 0
57.41 , 13.5 , -0.095 , 69.449 , 0
57.51 , 13.5 , -0.095 , 69.449 , 0
57.61 , 13.5 , -0.084 , 70.222 , 0
57.71 , 13.5 , -0.078 , 70.655 , 0
57.81 , 13.5 , -0.078 , 70.655 , 0
