ech9
circ
Time , Disp, Load , Pressure, Volume
0.07 , 0.005 , -0.072 , 0.734 , 0
0.17 , 0.064 , -0.072 , 0.734 , 0
0.26 , 0.124 , -0.094 , 0.76 , 0
0.36 , 0.186 , -0.096 , 0.577 , 0
0.51 , 0.276 , -0.096 , 0.577 , 0
0.58 , 0.32 , -0.089 , 0.603 , 0
0.68 , 0.382 , -0.091 , 0.498 , 0
0.76 , 0.436 , -0.1 , 0.564 , 0
0.86 , 0.499 , -0.1 , 0.564 , 0
1.0 , 0.585 , -0.098 , 0.472 , 0
1.08 , 0.634 , -0.079 , 0.367 , 0
1.18 , 0.698 , -0.079 , 0.367 , 0
1.27 , 0.748 , -0.1 , 0.406 , 0
1.36 , 0.811 , -0.081 , 0.354 , 0
1.51 , 0.9 , -0.1 , 0.485 , 0
1.58 , 0.947 , -0.1 , 0.485 , 0
1.67 , 1.005 , -0.089 , 0.197 , 0
1.76 , 1.061 , -0.081 , 0.144 , 0
1.86 , 1.124 , -0.081 , 0.144 , 0
2.0 , 1.211 , -0.07 , 0.17 , 0
2.08 , 1.257 , -0.087 , 0.105 , 0
2.17 , 1.316 , -0.087 , 0.105 , 0
2.27 , 1.374 , -0.1 , 0.092 , 0
2.36 , 1.436 , -0.1 , 0.131 , 0
2.51 , 1.527 , -0.096 , 0.236 , 0
2.58 , 1.569 , -0.096 , 0.236 , 0
2.67 , 1.628 , -0.077 , 0.026 , 0
2.76 , 1.686 , -0.094 , 0.183 , 0
2.86 , 1.749 , -0.094 , 0.183 , 0
3.01 , 1.839 , -0.087 , 0.079 , 0
3.08 , 1.881 , -0.098 , 0.118 , 0
3.17 , 1.939 , -0.1 , 0.079 , 0
3.27 , 1.999 , -0.1 , 0.079 , 0
3.36 , 2.062 , -0.066 , -0.249 , 0
3.51 , 2.15 , -0.081 , -0.0 , 0
3.58 , 2.194 , -0.081 , -0.0 , 0
3.67 , 2.25 , -0.079 , -0.118 , 0
3.77 , 2.311 , -0.096 , -0.131 , 0
3.87 , 2.374 , -0.096 , -0.131 , 0
4.01 , 2.461 , -0.089 , -0.236 , 0
4.08 , 2.507 , -0.098 , -0.223 , 0
4.18 , 2.568 , -0.089 , -0.315 , 0
4.27 , 2.624 , -0.089 , -0.315 , 0
4.36 , 2.686 , -0.098 , -0.354 , 0
4.5 , 2.772 , -0.081 , -0.485 , 0
4.58 , 2.822 , -0.079 , -0.537 , 0
4.68 , 2.883 , -0.079 , -0.537 , 0
4.76 , 2.936 , -0.094 , -0.472 , 0
4.87 , 2.999 , -0.089 , -0.721 , 0
5.0 , 3.084 , -0.089 , -0.721 , 0
5.07 , 3.125 , -0.096 , -0.629 , 0
5.16 , 3.186 , -0.089 , -0.655 , 0
5.31 , 3.275 , -0.089 , -0.655 , 0
5.38 , 3.319 , -0.079 , -0.564 , 0
5.48 , 3.382 , -0.089 , -0.603 , 0
5.56 , 3.436 , -0.087 , -0.655 , 0
5.67 , 3.498 , -0.087 , -0.655 , 0
5.81 , 3.589 , -0.096 , -0.839 , 0
5.89 , 3.637 , -0.098 , -0.839 , 0
5.98 , 3.695 , -0.098 , -0.839 , 0
6.07 , 3.749 , -0.077 , -0.852 , 0
6.17 , 3.811 , -0.091 , -0.826 , 0
6.31 , 3.899 , -0.091 , -0.826 , 0
6.37 , 3.941 , -0.083 , -0.826 , 0
6.47 , 4.002 , -0.079 , -0.957 , 0
6.57 , 4.061 , -0.089 , -1.048 , 0
6.67 , 4.124 , -0.089 , -1.048 , 0
6.81 , 4.212 , -0.087 , -0.865 , 0
6.88 , 4.256 , -0.066 , -0.878 , 0
6.98 , 4.317 , -0.066 , -0.878 , 0
7.07 , 4.373 , -0.098 , -1.009 , 0
7.17 , 4.436 , -0.083 , -1.127 , 0
7.31 , 4.523 , -0.077 , -1.048 , 0
7.38 , 4.565 , -0.077 , -1.048 , 0
7.46 , 4.623 , -0.094 , -1.114 , 0
7.61 , 4.714 , -0.083 , -1.062 , 0
7.68 , 4.758 , -0.083 , -1.062 , 0
7.78 , 4.818 , -0.096 , -1.14 , 0
7.86 , 4.874 , -0.089 , -1.219 , 0
7.97 , 4.936 , -0.089 , -1.219 , 0
8.11 , 5.024 , -0.087 , -1.245 , 0
8.19 , 5.074 , -0.096 , -1.258 , 0
8.28 , 5.134 , -0.079 , -1.494 , 0
8.36 , 5.186 , -0.079 , -1.494 , 0
8.47 , 5.249 , -0.081 , -1.481 , 0
8.61 , 5.338 , -0.098 , -1.468 , 0
8.68 , 5.381 , -0.098 , -1.468 , 0
8.77 , 5.442 , -0.098 , -1.507 , 0
8.87 , 5.498 , -0.083 , -1.415 , 0
8.97 , 5.561 , -0.068 , -1.625 , 0
9.11 , 5.65 , -0.068 , -1.625 , 0
9.18 , 5.696 , -0.087 , -1.599 , 0
9.28 , 5.761 , -0.096 , -1.586 , 0
9.37 , 5.811 , -0.096 , -1.586 , 0
9.47 , 5.874 , -0.094 , -1.573 , 0
9.57 , 5.936 , -0.091 , -1.769 , 0
9.67 , 5.998 , -0.091 , -1.769 , 0
9.81 , 6.087 , -0.089 , -1.586 , 0
9.89 , 6.135 , -0.081 , -1.599 , 0
9.99 , 6.199 , -0.094 , -1.848 , 0
10.07 , 6.249 , -0.094 , -1.848 , 0
10.17 , 6.311 , -0.087 , -1.979 , 0
10.31 , 6.401 , -0.089 , -1.874 , 0
10.38 , 6.443 , -0.089 , -1.874 , 0
10.47 , 6.504 , -0.072 , -1.979 , 0
10.57 , 6.561 , -0.091 , -1.94 , 0
10.67 , 6.624 , -0.085 , -1.913 , 0
10.81 , 6.71 , -0.085 , -1.913 , 0
10.88 , 6.756 , -0.083 , -1.887 , 0
10.98 , 6.822 , -0.089 , -1.874 , 0
11.07 , 6.873 , -0.089 , -1.874 , 0
11.17 , 6.936 , -0.091 , -2.136 , 0
11.31 , 7.026 , -0.085 , -2.018 , 0
11.38 , 7.068 , -0.077 , -2.018 , 0
11.48 , 7.131 , -0.077 , -2.018 , 0
11.57 , 7.186 , -0.087 , -2.136 , 0
11.67 , 7.249 , -0.081 , -2.097 , 0
11.81 , 7.338 , -0.081 , -2.097 , 0
11.88 , 7.383 , -0.087 , -2.294 , 0
11.98 , 7.444 , -0.085 , -2.202 , 0
12.07 , 7.499 , -0.085 , -2.202 , 0
12.17 , 7.561 , -0.098 , -2.412 , 0
12.31 , 7.652 , -0.087 , -2.346 , 0
12.38 , 7.695 , -0.098 , -2.346 , 0
12.48 , 7.756 , -0.098 , -2.346 , 0
12.57 , 7.811 , -0.106 , -2.202 , 0
12.67 , 7.873 , -0.091 , -2.425 , 0
12.81 , 7.964 , -0.091 , -2.425 , 0
12.88 , 8.007 , -0.083 , -2.503 , 0
12.98 , 8.065 , -0.089 , -2.346 , 0
13.07 , 8.123 , -0.072 , -2.425 , 0
13.17 , 8.188 , -0.072 , -2.425 , 0
13.27 , 8.246 , -0.083 , -2.503 , 0
13.4 , 8.25 , -0.089 , -2.529 , 0
13.48 , 8.25 , -0.089 , -2.529 , 0
13.56 , 8.25 , -0.089 , -2.595 , 0
13.66 , 8.25 , -0.102 , -2.608 , 0
13.76 , 8.25 , -0.096 , -2.385 , 0
13.86 , 8.25 , -0.096 , -2.385 , 0
13.97 , 8.25 , -0.091 , -2.556 , 0
14.07 , 8.25 , -0.089 , -2.438 , 0
14.17 , 8.25 , -0.089 , -2.438 , 0
14.27 , 8.25 , -0.07 , -2.569 , 0
14.37 , 8.25 , -0.113 , -2.529 , 0
14.47 , 8.25 , -0.113 , -2.529 , 0
14.57 , 8.25 , -0.091 , -2.529 , 0
14.67 , 8.25 , -0.087 , -2.464 , 0
14.77 , 8.25 , -0.083 , -2.503 , 0
14.87 , 8.25 , -0.083 , -2.503 , 0
14.97 , 8.25 , -0.087 , -2.398 , 0
15.07 , 8.25 , -0.094 , -2.595 , 0
15.17 , 8.25 , -0.094 , -2.595 , 0
15.27 , 8.25 , -0.096 , -2.569 , 0
15.37 , 8.25 , -0.081 , -2.477 , 0
15.47 , 8.25 , -0.089 , -2.503 , 0
15.57 , 8.25 , -0.089 , -2.503 , 0
15.67 , 8.25 , -0.087 , -2.556 , 0
15.77 , 8.25 , -0.083 , -2.503 , 0
15.87 , 8.25 , -0.083 , -2.503 , 0
15.97 , 8.25 , -0.087 , -2.503 , 0
16.07 , 8.25 , -0.091 , -2.543 , 0
16.17 , 8.25 , -0.091 , -2.543 , 0
16.27 , 8.25 , -0.077 , -2.464 , 0
16.37 , 8.25 , -0.098 , -2.359 , 0
16.47 , 8.25 , -0.098 , -2.477 , 0
16.57 , 8.25 , -0.098 , -2.477 , 0
16.67 , 8.25 , -0.089 , -2.647 , 0
16.77 , 8.25 , -0.087 , -2.425 , 0
16.87 , 8.25 , -0.087 , -2.425 , 0
16.97 , 8.25 , -0.096 , -2.739 , 0
17.07 , 8.25 , -0.091 , -2.516 , 0
17.17 , 8.25 , -0.083 , -2.294 , 0
17.27 , 8.25 , -0.083 , -2.294 , 0
17.37 , 8.25 , -0.091 , -2.477 , 0
17.47 , 8.25 , -0.087 , -2.543 , 0
17.57 , 8.25 , -0.087 , -2.543 , 0
17.67 , 8.25 , -0.089 , -2.516 , 0
17.77 , 8.25 , -0.083 , -2.582 , 0
17.87 , 8.25 , -0.083 , -2.582 , 0
17.97 , 8.25 , -0.085 , -2.346 , 0
18.07 , 8.25 , -0.089 , -2.385 , 0
18.17 , 8.25 , -0.083 , -2.464 , 0
18.27 , 8.25 , -0.083 , -2.464 , 0
18.37 , 8.25 , -0.091 , -2.543 , 0
18.47 , 8.25 , -0.079 , -2.385 , 0
18.57 , 8.25 , -0.079 , -2.385 , 0
18.67 , 8.25 , -0.096 , -2.516 , 0
18.77 , 8.25 , -0.091 , -2.582 , 0
18.87 , 8.25 , -0.085 , -2.412 , 0
18.97 , 8.25 , -0.085 , -2.412 , 0
19.07 , 8.25 , -0.087 , -2.765 , 0
19.17 , 8.25 , -0.085 , -2.503 , 0
19.27 , 8.25 , -0.085 , -2.503 , 0
19.37 , 8.25 , -0.089 , -2.464 , 0
19.47 , 8.25 , -0.094 , -2.595 , 0
19.57 , 8.25 , -0.094 , -2.595 , 0
19.67 , 8.25 , -0.091 , -2.425 , 0
19.76 , 8.25 , -0.079 , -2.359 , 0
19.87 , 8.25 , -0.098 , -2.608 , 0
19.97 , 8.25 , -0.098 , -2.608 , 0
20.07 , 8.25 , -0.085 , -2.412 , 0
20.17 , 8.25 , -0.094 , -2.503 , 0
20.27 , 8.25 , -0.094 , -2.503 , 0
20.37 , 8.25 , -0.089 , -2.359 , 0
20.47 , 8.25 , -0.096 , -2.372 , 0
20.57 , 8.25 , -0.087 , -2.333 , 0
20.67 , 8.25 , -0.087 , -2.333 , 0
20.77 , 8.25 , -0.087 , -2.477 , 0
20.87 , 8.25 , -0.081 , -2.307 , 0
20.97 , 8.25 , -0.081 , -2.307 , 0
21.07 , 8.25 , -0.083 , -2.372 , 0
21.17 , 8.25 , -0.098 , -2.464 , 0
21.27 , 8.25 , -0.083 , -2.149 , 0
21.37 , 8.25 , -0.083 , -2.149 , 0
21.47 , 8.25 , -0.087 , -2.543 , 0
21.57 , 8.25 , -0.083 , -2.385 , 0
21.67 , 8.25 , -0.083 , -2.385 , 0
21.77 , 8.25 , -0.087 , -2.372 , 0
21.87 , 8.25 , -0.089 , -2.385 , 0
21.97 , 8.25 , -0.089 , -2.385 , 0
22.07 , 8.25 , -0.087 , -2.556 , 0
22.17 , 8.25 , -0.085 , -2.503 , 0
22.27 , 8.25 , -0.077 , -2.464 , 0
22.37 , 8.25 , -0.077 , -2.464 , 0
22.47 , 8.25 , -0.094 , -2.451 , 0
22.57 , 8.25 , -0.094 , -2.529 , 0
22.67 , 8.25 , -0.094 , -2.529 , 0
22.77 , 8.25 , -0.089 , -2.32 , 0
22.87 , 8.25 , -0.098 , -2.556 , 0
22.97 , 8.25 , -0.089 , -2.385 , 0
23.07 , 8.25 , -0.089 , -2.385 , 0
23.17 , 8.25 , -0.083 , -2.464 , 0
23.27 , 8.25 , -0.091 , -2.582 , 0
23.37 , 8.25 , -0.091 , -2.582 , 0
23.47 , 8.25 , -0.085 , -2.372 , 0
23.57 , 8.25 , -0.087 , -2.425 , 0
23.67 , 8.25 , -0.087 , -2.425 , 0
23.77 , 8.25 , -0.079 , -2.543 , 0

End Pause

23.87 , 8.25 , -0.087 , -2.451 , 0
23.97 , 8.25 , -0.089 , -2.556 , 0
24.07 , 8.25 , -0.089 , -2.556 , 0
24.17 , 8.25 , -0.094 , -2.372 , 0
24.27 , 8.25 , -0.091 , -2.32 , 0
24.37 , 8.25 , -0.091 , -2.32 , 0
24.47 , 8.25 , -0.094 , -2.202 , 0
24.57 , 8.25 , -0.104 , -1.809 , 0
24.67 , 8.25 , -0.089 , -1.376 , 0
24.77 , 8.25 , -0.089 , -1.376 , 0
24.87 , 8.25 , -0.094 , -1.153 , 0
24.97 , 8.25 , -0.1 , -0.616 , 0
25.07 , 8.25 , -0.1 , -0.616 , 0
25.17 , 8.25 , -0.087 , -0.616 , 0
25.27 , 8.25 , -0.081 , 0.105 , 0
25.37 , 8.25 , -0.089 , 0.891 , 0
25.47 , 8.25 , -0.089 , 0.891 , 0
25.57 , 8.25 , -0.089 , 1.284 , 0
25.67 , 8.25 , -0.089 , 1.94 , 0
25.77 , 8.25 , -0.089 , 1.94 , 0
25.87 , 8.25 , -0.085 , 2.503 , 0
25.97 , 8.25 , -0.083 , 3.027 , 0
26.07 , 8.25 , -0.083 , 3.027 , 0
26.17 , 8.25 , -0.089 , 3.578 , 0
26.27 , 8.25 , -0.087 , 4.404 , 0
26.37 , 8.25 , -0.089 , 4.731 , 0
26.47 , 8.25 , -0.089 , 4.731 , 0
26.57 , 8.25 , -0.089 , 5.321 , 0
26.67 , 8.25 , -0.077 , 5.636 , 0
26.77 , 8.25 , -0.077 , 5.636 , 0
26.87 , 8.25 , -0.096 , 6.16 , 0
26.97 , 8.25 , -0.077 , 6.881 , 0
27.07 , 8.25 , -0.085 , 7.444 , 0
27.17 , 8.25 , -0.085 , 7.444 , 0
27.27 , 8.25 , -0.096 , 7.89 , 0
27.37 , 8.25 , -0.1 , 8.519 , 0
27.47 , 8.25 , -0.1 , 8.519 , 0
27.57 , 8.25 , -0.083 , 9.004 , 0
27.67 , 8.25 , -0.087 , 9.554 , 0
27.77 , 8.25 , -0.087 , 9.554 , 0
27.87 , 8.25 , -0.096 , 10.0 , 0
27.97 , 8.25 , -0.083 , 10.446 , 0
28.07 , 8.25 , -0.083 , 11.193 , 0
28.17 , 8.25 , -0.083 , 11.193 , 0
28.27 , 8.25 , -0.09 , 11.468 , 0
28.37 , 8.25 , -0.087 , 12.11 , 0
28.47 , 8.25 , -0.087 , 12.11 , 0
28.57 , 8.25 , -0.077 , 12.398 , 0
28.67 , 8.25 , -0.09 , 13.224 , 0
28.77 , 8.25 , -0.094 , 13.591 , 0
28.87 , 8.25 , -0.094 , 13.591 , 0
28.97 , 8.25 , -0.096 , 14.115 , 0
29.07 , 8.25 , -0.087 , 14.548 , 0
29.17 , 8.25 , -0.087 , 14.548 , 0
29.27 , 8.25 , -0.092 , 14.941 , 0
29.37 , 8.25 , -0.077 , 15.373 , 0
29.47 , 8.25 , -0.077 , 15.373 , 0
29.57 , 8.25 , -0.092 , 16.029 , 0
29.67 , 8.25 , -0.083 , 16.684 , 0
29.77 , 8.25 , -0.09 , 16.894 , 0
29.87 , 8.25 , -0.09 , 16.894 , 0
29.97 , 8.25 , -0.087 , 17.47 , 0
30.07 , 8.25 , -0.087 , 17.968 , 0
30.17 , 8.25 , -0.087 , 17.968 , 0
30.27 , 8.25 , -0.073 , 18.506 , 0
30.37 , 8.25 , -0.088 , 18.951 , 0
30.47 , 8.25 , -0.094 , 19.449 , 0
30.57 , 8.25 , -0.094 , 19.449 , 0
30.67 , 8.25 , -0.083 , 20.013 , 0
30.77 , 8.25 , -0.092 , 20.367 , 0
30.87 , 8.25 , -0.092 , 20.367 , 0
30.97 , 8.25 , -0.083 , 20.983 , 0
31.07 , 8.25 , -0.09 , 21.363 , 0
31.17 , 8.25 , -0.092 , 21.9 , 0
31.27 , 8.25 , -0.092 , 21.9 , 0
31.37 , 8.25 , -0.079 , 22.516 , 0
31.47 , 8.25 , -0.081 , 22.844 , 0
31.57 , 8.25 , -0.081 , 22.844 , 0
31.67 , 8.25 , -0.083 , 23.447 , 0
31.77 , 8.25 , -0.081 , 23.84 , 0
31.87 , 8.25 , -0.081 , 23.84 , 0
31.97 , 8.25 , -0.09 , 24.246 , 0
32.07 , 8.25 , -0.075 , 24.587 , 0
32.21 , 8.25 , -0.09 , 25.282 , 0
32.29 , 8.25 , -0.09 , 25.282 , 0
32.37 , 8.25 , -0.088 , 25.793 , 0
32.47 , 8.25 , -0.086 , 26.343 , 0
32.57 , 8.25 , -0.086 , 26.343 , 0
32.68 , 8.25 , -0.092 , 26.54 , 0
32.77 , 8.25 , -0.079 , 26.828 , 0
32.87 , 8.25 , -0.077 , 27.457 , 0
32.97 , 8.25 , -0.077 , 27.457 , 0
33.07 , 8.25 , -0.088 , 27.981 , 0
33.17 , 8.25 , -0.09 , 28.27 , 0
33.27 , 8.25 , -0.09 , 28.27 , 0
33.37 , 8.25 , -0.09 , 29.056 , 0
33.47 , 8.25 , -0.098 , 29.371 , 0
33.57 , 8.25 , -0.098 , 29.371 , 0
33.67 , 8.25 , -0.1 , 29.908 , 0
33.77 , 8.25 , -0.086 , 30.445 , 0
33.87 , 8.25 , -0.09 , 30.786 , 0
33.97 , 8.25 , -0.09 , 30.786 , 0
34.07 , 8.25 , -0.092 , 31.284 , 0
34.17 , 8.25 , -0.094 , 31.808 , 0
34.27 , 8.25 , -0.094 , 31.808 , 0
34.37 , 8.25 , -0.094 , 32.32 , 0
34.47 , 8.25 , -0.086 , 32.739 , 0
34.57 , 8.25 , -0.092 , 33.224 , 0
34.67 , 8.25 , -0.092 , 33.224 , 0
34.77 , 8.25 , -0.094 , 33.696 , 0
34.87 , 8.25 , -0.081 , 34.141 , 0
34.97 , 8.25 , -0.081 , 34.141 , 0
35.07 , 8.25 , -0.09 , 34.613 , 0
35.17 , 8.25 , -0.086 , 35.032 , 0
35.27 , 8.25 , -0.086 , 35.032 , 0
35.37 , 8.25 , -0.084 , 35.662 , 0
35.47 , 8.25 , -0.077 , 35.924 , 0
35.57 , 8.25 , -0.092 , 36.618 , 0
35.67 , 8.25 , -0.092 , 36.618 , 0
35.77 , 8.25 , -0.084 , 37.143 , 0
35.87 , 8.25 , -0.086 , 37.588 , 0
35.97 , 8.25 , -0.086 , 37.588 , 0
36.08 , 8.25 , -0.088 , 38.008 , 0
36.17 , 8.25 , -0.088 , 38.597 , 0
36.27 , 8.25 , -0.088 , 38.99 , 0
36.37 , 8.25 , -0.088 , 38.99 , 0
36.48 , 8.25 , -0.086 , 39.082 , 0
36.57 , 8.25 , -0.103 , 39.043 , 0
36.67 , 8.25 , -0.103 , 39.043 , 0
36.77 , 8.25 , -0.086 , 39.541 , 0
36.87 , 8.25 , -0.086 , 40.393 , 0
36.97 , 8.25 , -0.094 , 40.878 , 0
37.08 , 8.25 , -0.094 , 40.878 , 0
37.17 , 8.25 , -0.09 , 41.507 , 0
37.27 , 8.25 , -0.088 , 41.9 , 0
37.37 , 8.25 , -0.088 , 41.9 , 0
37.47 , 8.25 , -0.086 , 42.228 , 0
37.57 , 8.25 , -0.088 , 42.844 , 0
37.67 , 8.25 , -0.088 , 42.844 , 0
37.77 , 8.25 , -0.082 , 43.263 , 0
37.87 , 8.25 , -0.086 , 43.84 , 0
37.97 , 8.25 , -0.092 , 44.39 , 0
38.07 , 8.25 , -0.092 , 44.39 , 0
38.18 , 8.25 , -0.088 , 44.705 , 0
38.27 , 8.25 , -0.082 , 45.242 , 0
38.38 , 8.25 , -0.082 , 45.242 , 0
38.47 , 8.25 , -0.09 , 45.766 , 0
38.57 , 8.25 , -0.099 , 46.277 , 0
38.68 , 8.25 , -0.088 , 46.749 , 0
38.77 , 8.25 , -0.088 , 46.749 , 0
38.87 , 8.25 , -0.086 , 47.26 , 0
38.97 , 8.25 , -0.096 , 47.47 , 0
39.07 , 8.25 , -0.096 , 47.47 , 0
39.18 , 8.25 , -0.099 , 47.903 , 0
39.27 , 8.25 , -0.082 , 48.388 , 0
39.37 , 8.25 , -0.082 , 48.388 , 0
39.47 , 8.25 , -0.105 , 48.859 , 0
39.58 , 8.25 , -0.088 , 49.161 , 0
39.68 , 8.25 , -0.094 , 49.528 , 0
39.78 , 8.25 , -0.094 , 49.528 , 0
39.87 , 8.25 , -0.071 , 50.144 , 0
39.97 , 8.25 , -0.071 , 50.511 , 0
40.07 , 8.25 , -0.071 , 50.511 , 0
40.18 , 8.25 , -0.086 , 50.983 , 0
40.27 , 8.25 , -0.099 , 51.323 , 0
40.38 , 8.25 , -0.086 , 51.808 , 0
40.48 , 8.25 , -0.086 , 51.808 , 0
40.57 , 8.25 , -0.077 , 52.332 , 0
40.67 , 8.25 , -0.088 , 52.948 , 0
40.77 , 8.25 , -0.088 , 52.948 , 0
40.88 , 8.25 , -0.09 , 53.46 , 0
40.98 , 8.25 , -0.09 , 53.748 , 0
41.08 , 8.25 , -0.09 , 53.748 , 0
41.18 , 8.25 , -0.082 , 54.351 , 0
41.27 , 8.25 , -0.084 , 54.626 , 0
41.37 , 8.25 , -0.09 , 55.242 , 0
41.48 , 8.25 , -0.09 , 55.242 , 0
41.58 , 8.25 , -0.09 , 55.543 , 0
41.68 , 8.25 , -0.08 , 56.12 , 0
41.78 , 8.25 , -0.08 , 56.12 , 0
41.87 , 8.25 , -0.086 , 56.684 , 0
41.97 , 8.25 , -0.097 , 56.998 , 0
42.08 , 8.25 , -0.086 , 57.522 , 0
42.18 , 8.25 , -0.086 , 57.522 , 0
42.28 , 8.25 , -0.084 , 57.981 , 0
42.38 , 8.25 , -0.09 , 58.505 , 0
42.47 , 8.25 , -0.09 , 58.505 , 0
42.58 , 8.25 , -0.078 , 58.977 , 0
42.67 , 8.25 , -0.086 , 59.41 , 0
42.78 , 8.25 , -0.09 , 59.606 , 0
42.87 , 8.25 , -0.09 , 59.606 , 0
42.98 , 8.25 , -0.078 , 60.196 , 0
43.07 , 8.25 , -0.084 , 60.799 , 0
43.17 , 8.25 , -0.084 , 60.799 , 0
43.27 , 8.25 , -0.082 , 61.153 , 0
43.37 , 8.25 , -0.097 , 61.782 , 0
43.48 , 8.25 , -0.097 , 61.782 , 0
43.58 , 8.25 , -0.071 , 62.044 , 0
43.67 , 8.25 , -0.078 , 62.385 , 0
43.78 , 8.25 , -0.075 , 62.909 , 0
43.88 , 8.25 , -0.075 , 62.909 , 0
43.97 , 8.25 , -0.082 , 63.486 , 0
44.07 , 8.25 , -0.088 , 63.984 , 0
44.18 , 8.25 , -0.088 , 63.984 , 0
44.28 , 8.25 , -0.093 , 64.298 , 0
44.37 , 8.25 , -0.09 , 64.862 , 0
44.48 , 8.25 , -0.086 , 65.347 , 0
44.57 , 8.25 , -0.086 , 65.347 , 0
44.67 , 8.25 , -0.09 , 65.792 , 0
44.78 , 8.25 , -0.09 , 66.199 , 0
44.87 , 8.25 , -0.09 , 66.199 , 0
44.98 , 8.25 , -0.073 , 66.697 , 0
45.08 , 8.25 , -0.084 , 67.077 , 0
45.17 , 8.25 , -0.084 , 67.077 , 0
45.28 , 8.25 , -0.078 , 67.732 , 0
45.38 , 8.25 , -0.086 , 68.073 , 0
45.48 , 8.25 , -0.088 , 68.728 , 0
45.57 , 8.25 , -0.088 , 68.728 , 0
45.68 , 8.25 , -0.097 , 68.977 , 0
45.78 , 8.25 , -0.099 , 69.646 , 0
45.88 , 8.25 , -0.099 , 69.646 , 0
45.98 , 8.25 , -0.08 , 70.235 , 0
46.08 , 8.25 , -0.093 , 70.72 , 0
46.18 , 8.25 , -0.095 , 71.087 , 0
46.27 , 8.25 , -0.095 , 71.087 , 0
46.38 , 8.25 , -0.095 , 71.507 , 0
46.48 , 8.25 , -0.086 , 71.952 , 0
46.58 , 8.25 , -0.086 , 71.952 , 0
46.68 , 8.25 , -0.095 , 72.673 , 0
46.78 , 8.25 , -0.082 , 72.922 , 0
46.88 , 8.25 , -0.082 , 73.472 , 0
46.98 , 8.25 , -0.082 , 73.472 , 0
47.08 , 8.25 , -0.101 , 73.839 , 0
47.18 , 8.25 , -0.093 , 74.6 , 0
47.28 , 8.25 , -0.093 , 74.6 , 0
47.37 , 8.25 , -0.091 , 74.927 , 0
47.48 , 8.25 , -0.082 , 75.412 , 0
47.57 , 8.25 , -0.082 , 75.412 , 0
47.68 , 8.25 , -0.095 , 75.963 , 0
47.78 , 8.25 , -0.088 , 76.552 , 0
47.87 , 8.25 , -0.084 , 76.906 , 0
47.98 , 8.25 , -0.084 , 76.906 , 0
48.07 , 8.25 , -0.086 , 77.391 , 0
48.18 , 8.25 , -0.099 , 78.02 , 0
48.28 , 8.25 , -0.099 , 78.02 , 0
48.37 , 8.25 , -0.091 , 78.571 , 0
48.48 , 8.25 , -0.086 , 79.056 , 0
48.58 , 8.25 , -0.082 , 79.226 , 0
48.68 , 8.25 , -0.082 , 79.226 , 0
48.78 , 8.25 , -0.097 , 78.833 , 0
48.88 , 8.25 , -0.082 , 79.147 , 0
48.97 , 8.25 , -0.082 , 79.147 , 0
49.07 , 8.25 , -0.099 , 79.554 , 0
49.17 , 8.25 , -0.093 , 80.366 , 0
49.28 , 8.25 , -0.093 , 80.366 , 0
49.38 , 8.25 , -0.086 , 80.694 , 0
49.48 , 8.25 , -0.091 , 81.166 , 0
49.57 , 8.25 , -0.086 , 81.795 , 0
49.67 , 8.25 , -0.086 , 81.795 , 0
49.78 , 8.25 , -0.099 , 82.057 , 0
49.88 , 8.25 , -0.082 , 82.385 , 0
49.98 , 8.25 , -0.082 , 82.385 , 0
50.08 , 8.25 , -0.08 , 83.027 , 0
50.18 , 8.25 , -0.086 , 83.092 , 0
50.27 , 8.25 , -0.084 , 83.617 , 0
50.38 , 8.25 , -0.084 , 83.617 , 0
50.48 , 8.25 , -0.093 , 83.984 , 0
50.58 , 8.25 , -0.091 , 84.521 , 0
50.68 , 8.25 , -0.091 , 84.521 , 0
50.78 , 8.25 , -0.08 , 85.229 , 0
50.88 , 8.25 , -0.086 , 85.74 , 0
50.97 , 8.25 , -0.086 , 85.74 , 0
51.07 , 8.25 , -0.082 , 86.29 , 0
51.18 , 8.25 , -0.084 , 86.579 , 0
51.28 , 8.25 , -0.091 , 87.155 , 0
51.38 , 8.25 , -0.091 , 87.155 , 0
51.48 , 8.25 , -0.091 , 87.666 , 0
51.58 , 8.25 , -0.091 , 88.282 , 0
51.68 , 8.25 , -0.091 , 88.282 , 0
51.78 , 8.25 , -0.078 , 88.597 , 0
51.88 , 8.25 , -0.082 , 89.056 , 0
51.98 , 8.25 , -0.093 , 89.658 , 0
52.08 , 8.25 , -0.093 , 89.658 , 0
52.18 , 8.25 , -0.097 , 89.973 , 0
52.27 , 8.25 , -0.099 , 90.327 , 0
52.38 , 8.25 , -0.099 , 90.327 , 0
52.48 , 8.25 , -0.093 , 90.969 , 0
52.58 , 8.25 , -0.089 , 91.349 , 0
52.68 , 8.25 , -0.08 , 91.9 , 0
52.78 , 8.25 , -0.08 , 91.9 , 0
52.88 , 8.25 , -0.089 , 92.502 , 0
52.98 , 8.25 , -0.091 , 92.791 , 0
53.08 , 8.25 , -0.091 , 92.791 , 0
53.17 , 8.25 , -0.08 , 93.341 , 0
53.28 , 8.25 , -0.08 , 94.088 , 0
53.37 , 8.25 , -0.08 , 94.088 , 0
53.48 , 8.25 , -0.091 , 94.416 , 0
53.57 , 8.25 , -0.082 , 94.599 , 0
53.68 , 8.25 , -0.082 , 95.15 , 0
53.77 , 8.25 , -0.082 , 95.15 , 0
53.88 , 8.25 , -0.097 , 95.543 , 0
53.98 , 8.25 , -0.085 , 96.146 , 0
54.08 , 8.25 , -0.085 , 96.146 , 0
54.18 , 8.25 , -0.089 , 96.605 , 0
54.28 , 8.25 , -0.085 , 97.09 , 0
54.38 , 8.25 , -0.091 , 97.614 , 0
54.48 , 8.25 , -0.091 , 97.614 , 0
54.58 , 8.25 , -0.091 , 98.164 , 0
54.68 , 8.25 , -0.08 , 98.741 , 0
54.78 , 8.25 , -0.08 , 98.741 , 0
54.88 , 8.25 , -0.076 , 98.99 , 0
54.97 , 8.25 , -0.085 , 99.645 , 0
55.07 , 8.25 , -0.085 , 99.645 , 0
55.18 , 8.25 , -0.087 , 99.396 , 0
55.28 , 8.25 , -0.087 , 99.003 , 0
55.38 , 8.25 , -0.085 , 99.056 , 0
55.48 , 8.25 , -0.085 , 99.056 , 0
55.58 , 8.25 , -0.087 , 98.61 , 0
55.68 , 8.25 , -0.087 , 98.361 , 0
55.78 , 8.25 , -0.087 , 98.361 , 0
55.88 , 8.25 , -0.085 , 98.112 , 0
55.98 , 8.25 , -0.085 , 98.269 , 0
56.08 , 8.25 , -0.091 , 98.177 , 0
56.18 , 8.25 , -0.091 , 98.177 , 0
56.28 , 8.25 , -0.085 , 98.073 , 0
56.4 , 8.25 , -0.089 , 98.099 , 0
56.48 , 8.25 , -0.089 , 98.099 , 0
56.58 , 8.25 , -0.093 , 97.928 , 0
56.68 , 8.25 , -0.087 , 98.059 , 0
56.78 , 8.25 , -0.087 , 98.059 , 0
56.88 , 8.25 , -0.085 , 98.046 , 0
56.98 , 8.25 , -0.095 , 98.099 , 0
57.08 , 8.25 , -0.089 , 98.4 , 0
57.18 , 8.25 , -0.089 , 98.4 , 0
57.28 , 8.25 , -0.08 , 98.505 , 0
57.38 , 8.25 , -0.078 , 98.689 , 0
