traction_long1
rad
Time , Disp, Load , Pressure, Volume
0.11 , 0.017 , -0.096 , 5.531 , 0
0.19 , 0.038 , -0.087 , 5.74 , 0
0.29 , 0.066 , -0.092 , 5.714 , 0
0.43 , 0.105 , -0.092 , 5.714 , 0
0.5 , 0.125 , -0.089 , 5.714 , 0
0.6 , 0.153 , -0.092 , 5.57 , 0
0.69 , 0.177 , -0.081 , 5.636 , 0
0.79 , 0.205 , -0.081 , 5.636 , 0
0.94 , 0.245 , -0.089 , 5.649 , 0
1.02 , 0.267 , -0.083 , 5.858 , 0
1.11 , 0.294 , -0.083 , 5.858 , 0
1.19 , 0.316 , -0.098 , 5.819 , 0
1.29 , 0.344 , -0.098 , 5.963 , 0
1.43 , 0.383 , -0.098 , 5.963 , 0
1.5 , 0.402 , -0.085 , 5.688 , 0
1.6 , 0.429 , -0.081 , 5.688 , 0
1.69 , 0.455 , -0.094 , 5.688 , 0
1.79 , 0.483 , -0.094 , 5.688 , 0
1.94 , 0.523 , -0.089 , 5.767 , 0
2.01 , 0.543 , -0.094 , 5.924 , 0
2.1 , 0.57 , -0.094 , 5.924 , 0
2.19 , 0.594 , -0.079 , 5.478 , 0
2.29 , 0.622 , -0.089 , 5.636 , 0
2.44 , 0.662 , -0.085 , 5.583 , 0
2.51 , 0.683 , -0.085 , 5.583 , 0
2.61 , 0.711 , -0.083 , 5.701 , 0
2.69 , 0.733 , -0.092 , 5.583 , 0
2.79 , 0.761 , -0.092 , 5.583 , 0
2.94 , 0.801 , -0.077 , 5.767 , 0
3.01 , 0.821 , -0.096 , 5.596 , 0
3.11 , 0.848 , -0.096 , 5.596 , 0
3.19 , 0.872 , -0.098 , 5.636 , 0
3.29 , 0.9 , -0.098 , 5.806 , 0
3.43 , 0.939 , -0.089 , 5.714 , 0
3.5 , 0.958 , -0.089 , 5.714 , 0
3.6 , 0.985 , -0.087 , 5.872 , 0
3.69 , 1.011 , -0.085 , 5.924 , 0
3.79 , 1.038 , -0.085 , 5.924 , 0
3.94 , 1.078 , -0.113 , 5.727 , 0
4.01 , 1.1 , -0.077 , 5.636 , 0
4.11 , 1.128 , -0.085 , 5.649 , 0
4.19 , 1.149 , -0.085 , 5.649 , 0
4.29 , 1.177 , -0.098 , 5.78 , 0
4.44 , 1.217 , -0.081 , 5.767 , 0
4.51 , 1.236 , -0.081 , 5.767 , 0
4.6 , 1.263 , -0.079 , 5.793 , 0
4.69 , 1.288 , -0.085 , 5.675 , 0
4.79 , 1.316 , -0.085 , 5.675 , 0
4.93 , 1.355 , -0.072 , 5.911 , 0
5.01 , 1.376 , -0.087 , 5.806 , 0
5.11 , 1.403 , -0.079 , 5.78 , 0
5.19 , 1.427 , -0.079 , 5.78 , 0
5.29 , 1.455 , -0.1 , 5.649 , 0
5.43 , 1.494 , -0.087 , 5.754 , 0
5.51 , 1.515 , -0.096 , 5.649 , 0
5.6 , 1.542 , -0.096 , 5.649 , 0
5.7 , 1.566 , -0.081 , 5.714 , 0
5.8 , 1.594 , -0.081 , 5.675 , 0
5.93 , 1.633 , -0.081 , 5.675 , 0
6.01 , 1.653 , -0.094 , 5.727 , 0
6.09 , 1.678 , -0.1 , 5.544 , 0
6.2 , 1.705 , -0.1 , 5.544 , 0
6.3 , 1.733 , -0.092 , 5.688 , 0
6.44 , 1.772 , -0.087 , 5.95 , 0
6.51 , 1.794 , -0.077 , 5.609 , 0
6.61 , 1.821 , -0.077 , 5.609 , 0
6.69 , 1.844 , -0.089 , 5.78 , 0
6.8 , 1.872 , -0.092 , 5.662 , 0
6.93 , 1.911 , -0.092 , 5.662 , 0
7.0 , 1.93 , -0.092 , 5.754 , 0
7.1 , 1.957 , -0.098 , 5.675 , 0
7.2 , 1.983 , -0.098 , 5.675 , 0
7.29 , 2.011 , -0.085 , 5.649 , 0
7.39 , 2.038 , -0.081 , 5.793 , 0
7.5 , 2.066 , -0.092 , 5.714 , 0
7.64 , 2.107 , -0.092 , 5.714 , 0
7.72 , 2.128 , -0.077 , 5.675 , 0
7.82 , 2.157 , -0.094 , 5.636 , 0
7.9 , 2.177 , -0.094 , 5.636 , 0
8.0 , 2.205 , -0.085 , 5.675 , 0
8.13 , 2.243 , -0.083 , 5.714 , 0
8.2 , 2.263 , -0.089 , 5.662 , 0
8.3 , 2.291 , -0.089 , 5.662 , 0
8.39 , 2.316 , -0.087 , 5.74 , 0
8.5 , 2.344 , -0.094 , 5.78 , 0
8.64 , 2.384 , -0.094 , 5.78 , 0
8.71 , 2.404 , -0.089 , 5.662 , 0
8.8 , 2.43 , -0.092 , 5.636 , 0
8.9 , 2.455 , -0.092 , 5.636 , 0
8.99 , 2.483 , -0.083 , 5.727 , 0
9.1 , 2.511 , -0.075 , 5.872 , 0
9.2 , 2.539 , -0.092 , 5.622 , 0
9.3 , 2.566 , -0.092 , 5.622 , 0
9.39 , 2.594 , -0.085 , 5.727 , 0
9.49 , 2.622 , -0.081 , 5.675 , 0
9.6 , 2.649 , -0.081 , 5.675 , 0
9.73 , 2.688 , -0.083 , 5.583 , 0
9.81 , 2.71 , -0.083 , 5.701 , 0
9.91 , 2.738 , -0.085 , 5.662 , 0
10.0 , 2.76 , -0.085 , 5.662 , 0
10.1 , 2.789 , -0.079 , 5.688 , 0
10.24 , 2.828 , -0.094 , 5.622 , 0
10.31 , 2.848 , -0.094 , 5.622 , 0
10.41 , 2.875 , -0.087 , 5.78 , 0
10.49 , 2.899 , -0.081 , 5.688 , 0
10.6 , 2.927 , -0.092 , 5.505 , 0
10.74 , 2.967 , -0.092 , 5.505 , 0
10.81 , 2.987 , -0.083 , 5.596 , 0
10.91 , 3.015 , -0.092 , 5.57 , 0
10.99 , 3.038 , -0.092 , 5.57 , 0
11.1 , 3.066 , -0.089 , 5.78 , 0
11.23 , 3.105 , -0.098 , 5.662 , 0
11.31 , 3.125 , -0.083 , 5.701 , 0
11.41 , 3.153 , -0.083 , 5.701 , 0
11.49 , 3.177 , -0.079 , 5.518 , 0
11.6 , 3.205 , -0.092 , 5.662 , 0
11.74 , 3.245 , -0.092 , 5.662 , 0
11.81 , 3.265 , -0.089 , 5.57 , 0
11.9 , 3.291 , -0.098 , 5.557 , 0
11.99 , 3.316 , -0.098 , 5.557 , 0
12.09 , 3.344 , -0.087 , 5.701 , 0
12.2 , 3.372 , -0.083 , 5.754 , 0
12.3 , 3.401 , -0.075 , 5.662 , 0
12.39 , 3.427 , -0.075 , 5.662 , 0
12.5 , 3.456 , -0.079 , 5.727 , 0
12.6 , 3.483 , -0.083 , 5.78 , 0
12.69 , 3.511 , -0.083 , 5.78 , 0
12.8 , 3.538 , -0.087 , 5.622 , 0
12.9 , 3.567 , -0.092 , 5.557 , 0
13.0 , 3.594 , -0.092 , 5.557 , 0
13.1 , 3.622 , -0.083 , 5.727 , 0
13.19 , 3.649 , -0.085 , 5.793 , 0
13.3 , 3.678 , -0.085 , 5.701 , 0
13.4 , 3.705 , -0.085 , 5.701 , 0
13.5 , 3.733 , -0.087 , 5.78 , 0
13.6 , 3.76 , -0.089 , 5.557 , 0
13.7 , 3.789 , -0.089 , 5.557 , 0
13.8 , 3.816 , -0.064 , 5.662 , 0
13.9 , 3.844 , -0.079 , 5.845 , 0
14.0 , 3.872 , -0.102 , 5.531 , 0
14.1 , 3.9 , -0.102 , 5.531 , 0
14.2 , 3.927 , -0.089 , 5.727 , 0
14.3 , 3.956 , -0.087 , 5.727 , 0
14.4 , 3.983 , -0.087 , 5.727 , 0
14.5 , 4.011 , -0.098 , 5.622 , 0
14.6 , 4.038 , -0.083 , 5.478 , 0
14.7 , 4.066 , -0.07 , 5.636 , 0
14.83 , 4.104 , -0.07 , 5.636 , 0
14.9 , 4.124 , -0.085 , 5.832 , 0
15.01 , 4.153 , -0.085 , 5.727 , 0
15.1 , 4.177 , -0.085 , 5.727 , 0
15.2 , 4.206 , -0.087 , 5.74 , 0
15.3 , 4.233 , -0.092 , 5.596 , 0
15.4 , 4.261 , -0.092 , 5.596 , 0
15.5 , 4.288 , -0.075 , 5.649 , 0
15.6 , 4.316 , -0.096 , 5.583 , 0
15.7 , 4.344 , -0.079 , 5.557 , 0
15.8 , 4.372 , -0.079 , 5.557 , 0
15.9 , 4.4 , -0.072 , 5.806 , 0
16.0 , 4.428 , -0.089 , 5.583 , 0
16.1 , 4.455 , -0.089 , 5.583 , 0
16.2 , 4.484 , -0.089 , 5.78 , 0
16.3 , 4.511 , -0.087 , 5.675 , 0
16.4 , 4.539 , -0.087 , 5.701 , 0
16.5 , 4.566 , -0.087 , 5.701 , 0
16.6 , 4.595 , -0.083 , 5.688 , 0
16.7 , 4.622 , -0.096 , 5.675 , 0
16.8 , 4.65 , -0.096 , 5.675 , 0
16.9 , 4.677 , -0.081 , 5.675 , 0
17.0 , 4.706 , -0.092 , 5.478 , 0
17.1 , 4.733 , -0.092 , 5.478 , 0
17.2 , 4.761 , -0.083 , 5.609 , 0
17.3 , 4.788 , -0.089 , 5.557 , 0
17.4 , 4.816 , -0.102 , 5.505 , 0
17.53 , 4.854 , -0.102 , 5.505 , 0
17.61 , 4.875 , -0.092 , 5.78 , 0
17.7 , 4.901 , -0.079 , 5.806 , 0
17.8 , 4.927 , -0.079 , 5.806 , 0
17.9 , 4.955 , -0.094 , 5.662 , 0
18.0 , 4.983 , -0.096 , 5.727 , 0
18.1 , 5.011 , -0.085 , 5.636 , 0
18.2 , 5.038 , -0.085 , 5.636 , 0
18.3 , 5.066 , -0.098 , 5.649 , 0
18.44 , 5.106 , -0.098 , 5.609 , 0
18.51 , 5.127 , -0.072 , 5.531 , 0
18.61 , 5.154 , -0.072 , 5.531 , 0
18.7 , 5.177 , -0.102 , 5.727 , 0
18.8 , 5.206 , -0.104 , 5.609 , 0
18.9 , 5.233 , -0.104 , 5.609 , 0
19.0 , 5.262 , -0.102 , 5.518 , 0
19.1 , 5.288 , -0.083 , 5.609 , 0
19.2 , 5.316 , -0.083 , 5.609 , 0
19.33 , 5.354 , -0.079 , 5.714 , 0
19.41 , 5.375 , -0.081 , 5.714 , 0
19.51 , 5.403 , -0.081 , 5.714 , 0
19.6 , 5.427 , -0.089 , 5.727 , 0
19.7 , 5.456 , -0.111 , 5.557 , 0
19.8 , 5.483 , -0.083 , 5.832 , 0
19.9 , 5.51 , -0.083 , 5.832 , 0
20.03 , 5.549 , -0.089 , 5.727 , 0
20.11 , 5.569 , -0.079 , 5.74 , 0
20.2 , 5.596 , -0.079 , 5.74 , 0
20.3 , 5.622 , -0.094 , 5.688 , 0
20.4 , 5.651 , -0.083 , 5.701 , 0
20.5 , 5.677 , -0.089 , 5.845 , 0
20.6 , 5.706 , -0.089 , 5.845 , 0
20.7 , 5.733 , -0.083 , 5.74 , 0
20.8 , 5.761 , -0.094 , 5.819 , 0
20.94 , 5.8 , -0.094 , 5.819 , 0
21.02 , 5.822 , -0.079 , 5.819 , 0
21.12 , 5.85 , -0.077 , 5.754 , 0
21.2 , 5.871 , -0.077 , 5.754 , 0
21.3 , 5.9 , -0.079 , 5.583 , 0
21.4 , 5.927 , -0.104 , 5.583 , 0
21.51 , 5.957 , -0.089 , 5.74 , 0
21.6 , 5.983 , -0.089 , 5.74 , 0
21.7 , 6.012 , -0.096 , 5.675 , 0
21.8 , 6.038 , -0.096 , 5.544 , 0
21.9 , 6.066 , -0.096 , 5.544 , 0
22.04 , 6.105 , -0.083 , 5.754 , 0
22.11 , 6.126 , -0.092 , 5.727 , 0
22.22 , 6.156 , -0.081 , 5.78 , 0
22.3 , 6.177 , -0.081 , 5.78 , 0
22.4 , 6.206 , -0.092 , 5.662 , 0
22.5 , 6.233 , -0.085 , 5.754 , 0
22.6 , 6.261 , -0.085 , 5.754 , 0
22.7 , 6.288 , -0.089 , 5.675 , 0
22.8 , 6.317 , -0.077 , 5.898 , 0
22.9 , 6.344 , -0.077 , 5.898 , 0
23.0 , 6.372 , -0.087 , 5.622 , 0
23.13 , 6.41 , -0.089 , 5.557 , 0
23.21 , 6.43 , -0.081 , 5.465 , 0
23.32 , 6.46 , -0.081 , 5.465 , 0
23.4 , 6.483 , -0.087 , 5.675 , 0
23.5 , 6.511 , -0.085 , 5.662 , 0
23.6 , 6.538 , -0.085 , 5.662 , 0
23.7 , 6.567 , -0.098 , 5.649 , 0
23.8 , 6.594 , -0.089 , 5.806 , 0
23.9 , 6.623 , -0.094 , 5.898 , 0
24.0 , 6.649 , -0.094 , 5.898 , 0
24.11 , 6.679 , -0.085 , 5.74 , 0
24.2 , 6.705 , -0.081 , 5.701 , 0
24.3 , 6.734 , -0.081 , 5.701 , 0
24.4 , 6.76 , -0.089 , 5.636 , 0
24.5 , 6.788 , -0.085 , 5.806 , 0
24.64 , 6.829 , -0.1 , 5.767 , 0
24.73 , 6.852 , -0.1 , 5.767 , 0
24.83 , 6.881 , -0.085 , 5.609 , 0
24.9 , 6.902 , -0.087 , 5.727 , 0
25.01 , 6.93 , -0.087 , 5.727 , 0
25.1 , 6.955 , -0.079 , 5.78 , 0
25.2 , 6.984 , -0.085 , 5.74 , 0
25.3 , 7.01 , -0.085 , 5.74 , 0
25.4 , 7.039 , -0.087 , 5.727 , 0
25.5 , 7.066 , -0.089 , 5.688 , 0
25.6 , 7.095 , -0.087 , 5.832 , 0
25.7 , 7.121 , -0.087 , 5.832 , 0
25.8 , 7.15 , -0.083 , 5.845 , 0
25.9 , 7.177 , -0.077 , 5.518 , 0
26.01 , 7.206 , -0.077 , 5.518 , 0
26.1 , 7.233 , -0.104 , 5.793 , 0
26.2 , 7.261 , -0.075 , 5.596 , 0
26.34 , 7.299 , -0.089 , 5.662 , 0
26.41 , 7.32 , -0.089 , 5.662 , 0
26.52 , 7.349 , -0.098 , 5.727 , 0
26.6 , 7.371 , -0.085 , 5.688 , 0
26.7 , 7.4 , -0.085 , 5.688 , 0
26.8 , 7.427 , -0.092 , 5.701 , 0
26.9 , 7.456 , -0.077 , 5.675 , 0
27.0 , 7.483 , -0.077 , 5.675 , 0
27.1 , 7.512 , -0.081 , 5.688 , 0
27.2 , 7.538 , -0.089 , 5.649 , 0
27.31 , 7.567 , -0.092 , 5.583 , 0
27.4 , 7.594 , -0.092 , 5.583 , 0
27.5 , 7.623 , -0.085 , 5.609 , 0
27.6 , 7.649 , -0.098 , 5.662 , 0
27.7 , 7.678 , -0.098 , 5.662 , 0
27.8 , 7.705 , -0.094 , 5.609 , 0
27.91 , 7.734 , -0.079 , 5.544 , 0
28.0 , 7.76 , -0.098 , 5.583 , 0
28.11 , 7.79 , -0.098 , 5.583 , 0
28.2 , 7.816 , -0.092 , 5.57 , 0
28.3 , 7.845 , -0.085 , 5.557 , 0
28.4 , 7.872 , -0.085 , 5.557 , 0
28.51 , 7.901 , -0.089 , 5.505 , 0
28.6 , 7.927 , -0.087 , 5.636 , 0
28.7 , 7.957 , -0.087 , 5.557 , 0
28.8 , 7.983 , -0.087 , 5.557 , 0
28.91 , 8.011 , -0.094 , 5.622 , 0
29.0 , 8.038 , -0.085 , 5.649 , 0
29.1 , 8.066 , -0.085 , 5.649 , 0
29.23 , 8.104 , -0.098 , 5.78 , 0
29.31 , 8.125 , -0.085 , 5.727 , 0
29.41 , 8.154 , -0.085 , 5.727 , 0
29.5 , 8.177 , -0.094 , 5.793 , 0
29.6 , 8.206 , -0.089 , 5.701 , 0
29.7 , 8.233 , -0.083 , 5.636 , 0
29.8 , 8.261 , -0.083 , 5.636 , 0
29.94 , 8.3 , -0.085 , 5.78 , 0
30.02 , 8.322 , -0.092 , 5.754 , 0
30.12 , 8.351 , -0.092 , 5.754 , 0
30.2 , 8.372 , -0.096 , 5.609 , 0
30.3 , 8.399 , -0.094 , 5.622 , 0
30.44 , 8.439 , -0.087 , 5.754 , 0
30.52 , 8.461 , -0.087 , 5.754 , 0
30.63 , 8.491 , -0.085 , 5.662 , 0

Pause

30.78 , 8.506 , -0.096 , 5.57 , 0
30.85 , 8.506 , -0.087 , 5.557 , 0

Pause

30.96 , 8.506 , -0.087 , 5.557 , 0
31.04 , 8.506 , -0.077 , 5.662 , 0
31.12 , 8.506 , -0.089 , 5.636 , 0
31.21 , 8.506 , -0.089 , 5.636 , 0
31.3 , 8.506 , -0.075 , 5.609 , 0
31.4 , 8.506 , -0.081 , 5.688 , 0
31.5 , 8.506 , -0.081 , 5.688 , 0
31.6 , 8.506 , -0.092 , 5.622 , 0
31.7 , 8.506 , -0.087 , 5.636 , 0
31.8 , 8.506 , -0.087 , 5.636 , 0
31.9 , 8.506 , -0.075 , 5.531 , 0
32.0 , 8.506 , -0.085 , 5.688 , 0
32.1 , 8.506 , -0.085 , 5.531 , 0
32.2 , 8.506 , -0.085 , 5.531 , 0
32.3 , 8.506 , -0.081 , 5.714 , 0
32.4 , 8.506 , -0.085 , 5.767 , 0
32.5 , 8.506 , -0.085 , 5.767 , 0
