ech1_s15_p30
long
Time , Disp, Load , Pressure, Volume
0.05 , -48.998 , 0.342 , 26.684 , 0.032
0.13 , -48.945 , 0.342 , 26.684 , 0.032
0.23 , -48.885 , 0.316 , 26.579 , 0.032
0.33 , -48.826 , 0.308 , 26.422 , 0.032
0.45 , -48.745 , 0.308 , 26.422 , 0.032
0.52 , -48.707 , 0.35 , 26.265 , 0.032
0.61 , -48.648 , 0.338 , 26.382 , 0.032
0.74 , -48.565 , 0.338 , 26.382 , 0.032
0.81 , -48.528 , 0.367 , 26.225 , 0.032
0.9 , -48.466 , 0.412 , 26.16 , 0.032
1.03 , -48.386 , 0.435 , 26.291 , 0.032
1.11 , -48.341 , 0.435 , 26.291 , 0.032
1.2 , -48.279 , 0.455 , 26.251 , 0.032
1.33 , -48.197 , 0.487 , 26.068 , 0.032
1.41 , -48.154 , 0.487 , 26.068 , 0.032
1.51 , -48.091 , 0.514 , 26.147 , 0.032
1.64 , -48.007 , 0.521 , 25.976 , 0.032
1.7 , -47.966 , 0.521 , 25.976 , 0.032
1.81 , -47.903 , 0.567 , 25.924 , 0.032
1.92 , -47.828 , 0.595 , 25.766 , 0.032
2.0 , -47.778 , 0.61 , 25.806 , 0.032
2.11 , -47.716 , 0.61 , 25.806 , 0.032
2.23 , -47.638 , 0.663 , 25.989 , 0.032
2.31 , -47.591 , 0.703 , 25.753 , 0.032
2.4 , -47.528 , 0.703 , 25.753 , 0.032
2.53 , -47.448 , 0.735 , 25.898 , 0.032
2.61 , -47.404 , 0.78 , 25.74 , 0.032
2.7 , -47.341 , 0.823 , 25.57 , 0.032
2.83 , -47.259 , 0.823 , 25.57 , 0.032
2.91 , -47.216 , 0.84 , 25.74 , 0.032
3.01 , -47.153 , 0.897 , 25.662 , 0.032
3.14 , -47.068 , 0.897 , 25.662 , 0.032
3.2 , -47.028 , 0.946 , 25.753 , 0.032
3.31 , -47.0 , 0.974 , 25.675 , 0.032
3.42 , -47.0 , 0.974 , 25.675 , 0.032
3.5 , -47.0 , 1.061 , 25.793 , 0.032
3.61 , -47.0 , 1.097 , 25.898 , 0.032
3.71 , -47.0 , 1.105 , 25.714 , 0.032
3.81 , -47.0 , 1.105 , 25.714 , 0.032
3.9 , -47.0 , 1.095 , 25.675 , 0.032
4.01 , -47.0 , 1.082 , 25.95 , 0.032
4.11 , -47.0 , 1.082 , 25.95 , 0.032
4.21 , -47.0 , 1.084 , 25.662 , 0.034
4.3 , -47.0 , 1.048 , 25.845 , 0.034
4.41 , -47.0 , 1.05 , 25.635 , 0.034
4.51 , -47.0 , 1.05 , 25.635 , 0.034
4.6 , -47.0 , 1.037 , 25.635 , 0.034
4.7 , -47.0 , 1.044 , 25.766 , 0.038
4.81 , -47.0 , 1.044 , 25.766 , 0.038
4.91 , -47.0 , 1.027 , 25.596 , 0.038
5.0 , -47.0 , 1.031 , 25.622 , 0.038
5.1 , -47.0 , 1.031 , 25.622 , 0.038
5.21 , -47.0 , 1.033 , 25.74 , 0.038
5.31 , -47.0 , 1.016 , 25.688 , 0.038
5.4 , -47.0 , 1.018 , 25.622 , 0.038
5.5 , -47.0 , 1.018 , 25.622 , 0.038
5.61 , -47.0 , 1.005 , 25.635 , 0.038
5.71 , -47.0 , 1.014 , 25.622 , 0.042
5.8 , -47.0 , 1.014 , 25.622 , 0.042
5.91 , -47.0 , 1.001 , 25.504 , 0.042
6.01 , -47.0 , 0.997 , 25.465 , 0.042
6.11 , -47.0 , 0.997 , 25.714 , 0.042
6.2 , -47.0 , 0.997 , 25.714 , 0.042
6.31 , -47.0 , 0.995 , 25.478 , 0.042
6.41 , -47.0 , 1.014 , 25.413 , 0.042
6.5 , -47.0 , 1.014 , 25.413 , 0.042
6.6 , -47.0 , 0.982 , 25.426 , 0.042
6.71 , -47.0 , 0.984 , 25.386 , 0.042
6.81 , -47.0 , 1.005 , 25.426 , 0.042
6.9 , -47.0 , 1.005 , 25.426 , 0.042
7.01 , -47.0 , 0.995 , 25.465 , 0.042
7.11 , -47.0 , 0.971 , 25.57 , 0.042
7.21 , -47.0 , 0.971 , 25.57 , 0.042
7.3 , -47.0 , 0.991 , 25.295 , 0.042
7.41 , -47.0 , 0.986 , 25.478 , 0.042
7.51 , -47.0 , 0.986 , 25.478 , 0.042
7.61 , -47.0 , 0.986 , 25.517 , 0.042
7.7 , -47.0 , 0.988 , 25.386 , 0.042
7.81 , -47.0 , 0.971 , 25.426 , 0.042
7.91 , -47.0 , 0.971 , 25.426 , 0.042
8.0 , -47.0 , 0.971 , 25.386 , 0.042
8.1 , -47.0 , 0.969 , 25.255 , 0.042
8.21 , -47.0 , 0.969 , 25.255 , 0.042
8.31 , -47.0 , 0.971 , 25.242 , 0.042
8.4 , -47.0 , 0.974 , 25.111 , 0.042
8.5 , -47.0 , 0.978 , 25.255 , 0.042
8.61 , -47.0 , 0.978 , 25.255 , 0.042
8.71 , -47.0 , 0.965 , 25.19 , 0.042
8.8 , -47.0 , 0.974 , 25.334 , 0.042
8.9 , -47.0 , 0.974 , 25.334 , 0.042
9.01 , -47.0 , 0.959 , 25.334 , 0.042
9.11 , -47.0 , 0.961 , 25.203 , 0.042
9.2 , -47.0 , 0.961 , 25.203 , 0.042
9.31 , -47.0 , 0.948 , 25.36 , 0.042
9.41 , -47.0 , 0.959 , 25.386 , 0.042
9.51 , -47.0 , 0.95 , 25.255 , 0.042
9.6 , -47.0 , 0.95 , 25.255 , 0.042
9.71 , -47.0 , 0.952 , 25.203 , 0.042
9.81 , -47.0 , 0.961 , 25.255 , 0.042
9.9 , -47.0 , 0.961 , 25.255 , 0.042
10.0 , -47.0 , 0.965 , 25.216 , 0.042
10.11 , -47.0 , 0.948 , 25.151 , 0.042
10.21 , -47.0 , 0.95 , 25.308 , 0.042
10.3 , -47.0 , 0.95 , 25.308 , 0.042
10.4 , -47.0 , 0.957 , 25.164 , 0.042
10.51 , -47.0 , 0.952 , 25.177 , 0.042
10.61 , -47.0 , 0.952 , 25.177 , 0.042
10.7 , -47.0 , 0.95 , 25.36 , 0.042
10.81 , -47.0 , 0.959 , 25.216 , 0.042
10.91 , -47.0 , 0.952 , 25.098 , 0.042
11.01 , -47.0 , 0.952 , 25.098 , 0.042
11.1 , -47.0 , 0.952 , 25.19 , 0.042
11.21 , -47.0 , 0.942 , 25.19 , 0.042
11.31 , -47.0 , 0.942 , 25.19 , 0.042
11.41 , -47.0 , 0.948 , 25.295 , 0.042
11.5 , -47.0 , 0.937 , 25.242 , 0.042
11.61 , -47.0 , 0.937 , 25.242 , 0.042
11.71 , -47.0 , 0.933 , 25.019 , 0.042
11.8 , -47.0 , 0.946 , 25.072 , 0.042
11.9 , -47.0 , 0.935 , 25.308 , 0.042
12.01 , -47.0 , 0.935 , 25.308 , 0.042
12.11 , -47.0 , 0.944 , 25.19 , 0.042
12.2 , -47.0 , 0.948 , 25.072 , 0.042
12.3 , -47.0 , 0.948 , 25.072 , 0.042
12.41 , -47.0 , 0.925 , 25.255 , 0.042
12.51 , -47.0 , 0.931 , 25.072 , 0.042
12.6 , -47.0 , 0.94 , 25.111 , 0.042
12.71 , -47.0 , 0.94 , 25.111 , 0.042
12.81 , -47.0 , 0.929 , 25.085 , 0.042
12.91 , -47.0 , 0.95 , 24.928 , 0.042
13.0 , -47.0 , 0.95 , 24.928 , 0.042
13.11 , -47.0 , 0.918 , 25.203 , 0.042
13.21 , -47.0 , 0.944 , 24.941 , 0.042
13.3 , -47.0 , 0.944 , 24.941 , 0.042
13.4 , -47.0 , 0.916 , 24.993 , 0.042
13.51 , -47.0 , 0.925 , 25.137 , 0.042
13.61 , -47.0 , 0.922 , 24.967 , 0.042
13.7 , -47.0 , 0.922 , 24.967 , 0.042
13.8 , -47.0 , 0.912 , 25.033 , 0.042
13.91 , -47.0 , 0.92 , 25.177 , 0.042
14.01 , -47.0 , 0.92 , 25.177 , 0.042
14.1 , -47.0 , 0.931 , 25.006 , 0.042
14.21 , -47.0 , 0.914 , 25.164 , 0.042
14.31 , -47.0 , 0.918 , 24.941 , 0.042
14.41 , -47.0 , 0.918 , 24.941 , 0.042
14.5 , -47.0 , 0.916 , 25.085 , 0.042
14.61 , -47.0 , 0.92 , 24.993 , 0.042
14.71 , -47.0 , 0.92 , 24.993 , 0.042
14.81 , -47.0 , 0.91 , 25.006 , 0.042
14.9 , -47.0 , 0.92 , 25.111 , 0.042
15.01 , -47.0 , 0.92 , 25.111 , 0.042
15.11 , -47.0 , 0.929 , 24.862 , 0.042
15.2 , -47.0 , 0.925 , 24.941 , 0.042
15.3 , -47.0 , 0.918 , 24.993 , 0.042
15.41 , -47.0 , 0.918 , 24.993 , 0.042
15.51 , -47.0 , 0.922 , 24.901 , 0.042
15.6 , -47.0 , 0.901 , 24.823 , 0.042
15.7 , -47.0 , 0.901 , 24.823 , 0.042
15.81 , -47.0 , 0.916 , 24.849 , 0.042
15.91 , -47.0 , 0.912 , 24.98 , 0.042
16.0 , -47.0 , 0.922 , 24.915 , 0.042
16.11 , -47.0 , 0.922 , 24.915 , 0.042
16.21 , -47.0 , 0.92 , 25.033 , 0.042
16.31 , -47.0 , 0.92 , 24.98 , 0.042
16.4 , -47.0 , 0.92 , 24.98 , 0.042
16.51 , -47.0 , 0.916 , 24.98 , 0.042
16.61 , -47.0 , 0.914 , 24.901 , 0.042
16.71 , -47.0 , 0.899 , 24.77 , 0.042
16.8 , -47.0 , 0.899 , 24.77 , 0.042
16.91 , -47.0 , 0.899 , 25.019 , 0.042
17.01 , -47.0 , 0.897 , 24.784 , 0.042
17.1 , -47.0 , 0.897 , 24.784 , 0.042
17.2 , -47.0 , 0.916 , 24.849 , 0.042
17.31 , -47.0 , 0.912 , 24.888 , 0.042
17.41 , -47.0 , 0.912 , 24.888 , 0.042
17.5 , -47.0 , 0.908 , 24.731 , 0.042
17.61 , -47.0 , 0.905 , 24.98 , 0.042
17.71 , -47.0 , 0.903 , 24.639 , 0.042
ech1_s15_p30
long
Time , Disp, Load , Pressure, Volume
0.08 , 0.02 , 0.261 , 25.282 , 0.042
0.16 , 0.065 , 0.276 , 25.517 , 0.042
0.25 , 0.128 , 0.276 , 25.517 , 0.042
0.38 , 0.21 , 0.244 , 25.452 , 0.042
0.46 , 0.253 , 0.257 , 25.255 , 0.042
0.56 , 0.315 , 0.261 , 25.216 , 0.042
0.69 , 0.399 , 0.261 , 25.216 , 0.042
0.75 , 0.44 , 0.289 , 25.295 , 0.042
0.86 , 0.502 , 0.312 , 25.177 , 0.042
0.97 , 0.579 , 0.312 , 25.177 , 0.042
1.05 , 0.628 , 0.333 , 24.967 , 0.042
1.15 , 0.69 , 0.365 , 25.19 , 0.042
1.28 , 0.769 , 0.384 , 24.836 , 0.042
1.36 , 0.815 , 0.384 , 24.836 , 0.042
1.45 , 0.878 , 0.401 , 24.81 , 0.042
1.58 , 0.958 , 0.433 , 24.823 , 0.042
1.66 , 1.003 , 0.433 , 24.823 , 0.042
1.76 , 1.065 , 0.453 , 24.862 , 0.042
1.88 , 1.148 , 0.478 , 24.757 , 0.042
1.96 , 1.19 , 0.518 , 24.666 , 0.042
2.06 , 1.253 , 0.518 , 24.666 , 0.042
2.19 , 1.337 , 0.538 , 24.548 , 0.042
2.25 , 1.377 , 0.578 , 24.679 , 0.042
2.36 , 1.44 , 0.578 , 24.679 , 0.042
2.47 , 1.517 , 0.608 , 24.495 , 0.042
2.55 , 1.566 , 0.642 , 24.548 , 0.042
2.65 , 1.628 , 0.642 , 24.548 , 0.042
2.78 , 1.706 , 0.684 , 24.508 , 0.042
2.86 , 1.753 , 0.703 , 24.613 , 0.042
2.95 , 1.816 , 0.765 , 24.351 , 0.042
3.08 , 1.896 , 0.765 , 24.351 , 0.042
3.16 , 1.941 , 0.812 , 24.495 , 0.042
3.26 , 1.998 , 0.863 , 24.39 , 0.042
3.38 , 2.0 , 0.863 , 24.39 , 0.042
3.46 , 2.0 , 0.916 , 24.508 , 0.042
3.56 , 2.0 , 0.963 , 24.521 , 0.042
3.66 , 2.0 , 0.991 , 24.364 , 0.042
3.75 , 2.0 , 0.991 , 24.364 , 0.042
3.86 , 2.0 , 0.974 , 24.403 , 0.042
3.96 , 2.0 , 0.961 , 24.338 , 0.042
4.05 , 2.0 , 0.961 , 24.338 , 0.042
4.15 , 2.0 , 0.946 , 24.456 , 0.044
4.26 , 2.0 , 0.944 , 24.417 , 0.044
4.36 , 2.0 , 0.944 , 24.417 , 0.044
4.45 , 2.0 , 0.952 , 24.377 , 0.044
4.57 , 2.0 , 0.944 , 24.613 , 0.044
4.66 , 2.0 , 0.942 , 24.403 , 0.048
4.76 , 2.0 , 0.942 , 24.403 , 0.048
4.85 , 2.0 , 0.92 , 24.22 , 0.048
4.96 , 2.0 , 0.91 , 24.259 , 0.048
5.06 , 2.0 , 0.91 , 24.259 , 0.048
5.16 , 2.0 , 0.916 , 24.39 , 0.048
5.25 , 2.0 , 0.905 , 24.377 , 0.048
5.36 , 2.0 , 0.912 , 24.325 , 0.048
5.46 , 2.0 , 0.912 , 24.325 , 0.048
5.55 , 2.0 , 0.92 , 24.259 , 0.048
5.65 , 2.0 , 0.901 , 24.39 , 0.052
5.76 , 2.0 , 0.901 , 24.39 , 0.052
5.86 , 2.0 , 0.908 , 24.338 , 0.052
5.95 , 2.0 , 0.929 , 24.495 , 0.052
6.05 , 2.0 , 0.903 , 24.351 , 0.052
6.16 , 2.0 , 0.903 , 24.351 , 0.052
6.26 , 2.0 , 0.914 , 24.286 , 0.052
6.35 , 2.0 , 0.899 , 24.128 , 0.052
6.45 , 2.0 , 0.899 , 24.128 , 0.052
6.56 , 2.0 , 0.884 , 24.128 , 0.052
6.66 , 2.0 , 0.912 , 24.364 , 0.052
6.75 , 2.0 , 0.912 , 24.364 , 0.052
6.86 , 2.0 , 0.914 , 24.377 , 0.052
6.96 , 2.0 , 0.886 , 24.312 , 0.052
7.06 , 2.0 , 0.871 , 24.299 , 0.052
7.15 , 2.0 , 0.871 , 24.299 , 0.052
7.26 , 2.0 , 0.891 , 24.207 , 0.052
7.36 , 2.0 , 0.895 , 24.246 , 0.052
7.45 , 2.0 , 0.895 , 24.246 , 0.052
7.55 , 2.0 , 0.869 , 24.194 , 0.052
7.66 , 2.0 , 0.871 , 24.325 , 0.052
7.76 , 2.0 , 0.893 , 24.207 , 0.052
7.85 , 2.0 , 0.893 , 24.207 , 0.052
7.95 , 2.0 , 0.897 , 24.128 , 0.052
8.06 , 2.0 , 0.893 , 24.246 , 0.052
8.16 , 2.0 , 0.893 , 24.246 , 0.052
8.25 , 2.0 , 0.88 , 24.036 , 0.052
8.36 , 2.0 , 0.878 , 24.023 , 0.052
8.46 , 2.0 , 0.878 , 24.023 , 0.052
8.56 , 2.0 , 0.888 , 24.233 , 0.052
8.65 , 2.0 , 0.88 , 24.089 , 0.052
8.76 , 2.0 , 0.867 , 24.102 , 0.052
8.86 , 2.0 , 0.867 , 24.102 , 0.052
8.96 , 2.0 , 0.891 , 24.259 , 0.052
9.05 , 2.0 , 0.882 , 24.076 , 0.052
9.16 , 2.0 , 0.882 , 24.076 , 0.052
9.26 , 2.0 , 0.886 , 24.154 , 0.052
9.35 , 2.0 , 0.867 , 24.22 , 0.052
9.45 , 2.0 , 0.878 , 24.063 , 0.052
9.56 , 2.0 , 0.878 , 24.063 , 0.052
9.66 , 2.0 , 0.869 , 24.05 , 0.052
9.75 , 2.0 , 0.859 , 24.128 , 0.052
9.85 , 2.0 , 0.859 , 24.128 , 0.052
9.96 , 2.0 , 0.869 , 24.259 , 0.052
10.06 , 2.0 , 0.88 , 24.128 , 0.052
10.15 , 2.0 , 0.88 , 24.128 , 0.052
10.26 , 2.0 , 0.876 , 24.063 , 0.052
10.36 , 2.0 , 0.871 , 24.141 , 0.052
10.46 , 2.0 , 0.869 , 23.919 , 0.052
10.55 , 2.0 , 0.869 , 23.919 , 0.052
10.66 , 2.0 , 0.869 , 24.22 , 0.052
10.76 , 2.0 , 0.888 , 24.168 , 0.052
10.85 , 2.0 , 0.888 , 24.168 , 0.052
10.95 , 2.0 , 0.869 , 23.971 , 0.052
11.06 , 2.0 , 0.852 , 23.997 , 0.052
11.16 , 2.0 , 0.867 , 23.945 , 0.052
11.25 , 2.0 , 0.867 , 23.945 , 0.052
11.35 , 2.0 , 0.876 , 24.207 , 0.052
11.46 , 2.0 , 0.869 , 23.971 , 0.052
11.56 , 2.0 , 0.869 , 23.971 , 0.052
11.65 , 2.0 , 0.861 , 24.154 , 0.052
11.76 , 2.0 , 0.874 , 23.971 , 0.052
11.86 , 2.0 , 0.852 , 23.919 , 0.052
11.96 , 2.0 , 0.852 , 23.919 , 0.052
12.05 , 2.0 , 0.882 , 24.128 , 0.052
12.16 , 2.0 , 0.867 , 24.076 , 0.052
12.26 , 2.0 , 0.867 , 24.076 , 0.052
12.36 , 2.0 , 0.848 , 24.194 , 0.052
12.45 , 2.0 , 0.857 , 23.945 , 0.052
12.56 , 2.0 , 0.857 , 23.945 , 0.052
12.66 , 2.0 , 0.846 , 24.128 , 0.052
12.75 , 2.0 , 0.867 , 23.827 , 0.052
12.85 , 2.0 , 0.848 , 23.997 , 0.052
12.96 , 2.0 , 0.848 , 23.997 , 0.052
13.06 , 2.0 , 0.861 , 23.919 , 0.052
13.15 , 2.0 , 0.867 , 23.945 , 0.052
13.25 , 2.0 , 0.867 , 23.945 , 0.052
13.36 , 2.0 , 0.865 , 23.919 , 0.052
13.46 , 2.0 , 0.861 , 24.05 , 0.052
13.55 , 2.0 , 0.859 , 24.063 , 0.052
13.66 , 2.0 , 0.859 , 24.063 , 0.052
13.76 , 2.0 , 0.863 , 23.984 , 0.052
13.86 , 2.0 , 0.857 , 23.853 , 0.052
13.95 , 2.0 , 0.857 , 23.853 , 0.052
14.06 , 2.0 , 0.848 , 23.866 , 0.052
14.16 , 2.0 , 0.857 , 23.879 , 0.052
14.25 , 2.0 , 0.857 , 23.879 , 0.052
14.35 , 2.0 , 0.865 , 23.984 , 0.052
14.46 , 2.0 , 0.865 , 24.01 , 0.052
14.56 , 2.0 , 0.857 , 23.958 , 0.052
14.65 , 2.0 , 0.857 , 23.958 , 0.052
14.75 , 2.0 , 0.852 , 23.866 , 0.052
14.86 , 2.0 , 0.857 , 23.735 , 0.052
14.96 , 2.0 , 0.857 , 23.735 , 0.052
15.05 , 2.0 , 0.84 , 23.774 , 0.052
15.16 , 2.0 , 0.852 , 23.84 , 0.052
15.26 , 2.0 , 0.857 , 23.945 , 0.052
15.36 , 2.0 , 0.857 , 23.945 , 0.052
15.45 , 2.0 , 0.831 , 23.853 , 0.052
15.56 , 2.0 , 0.84 , 23.905 , 0.052
15.66 , 2.0 , 0.84 , 23.905 , 0.052
15.76 , 2.0 , 0.84 , 23.997 , 0.052
15.85 , 2.0 , 0.861 , 24.023 , 0.052
15.96 , 2.0 , 0.861 , 24.023 , 0.052
16.06 , 2.0 , 0.852 , 23.892 , 0.052
16.15 , 2.0 , 0.852 , 23.905 , 0.052
16.25 , 2.0 , 0.842 , 23.617 , 0.052
16.36 , 2.0 , 0.842 , 23.617 , 0.052
16.46 , 2.0 , 0.831 , 23.683 , 0.052
16.55 , 2.0 , 0.835 , 23.971 , 0.052
16.65 , 2.0 , 0.835 , 23.971 , 0.052
16.76 , 2.0 , 0.846 , 23.905 , 0.052
16.86 , 2.0 , 0.846 , 23.932 , 0.052
16.95 , 2.0 , 0.816 , 23.787 , 0.052
17.06 , 2.0 , 0.816 , 23.787 , 0.052
17.16 , 2.0 , 0.84 , 23.774 , 0.052
17.26 , 2.0 , 0.844 , 23.827 , 0.052
17.35 , 2.0 , 0.844 , 23.827 , 0.052
17.46 , 2.0 , 0.827 , 23.853 , 0.052
17.56 , 2.0 , 0.835 , 23.919 , 0.052
17.66 , 2.0 , 0.85 , 23.971 , 0.052
17.75 , 2.0 , 0.85 , 23.971 , 0.052
17.86 , 2.0 , 0.842 , 23.827 , 0.052
17.96 , 2.0 , 0.833 , 23.696 , 0.052
18.05 , 2.0 , 0.833 , 23.696 , 0.052
18.15 , 2.0 , 0.825 , 23.735 , 0.052
18.26 , 2.0 , 0.831 , 23.919 , 0.052
18.36 , 2.0 , 0.831 , 23.919 , 0.052
18.45 , 2.0 , 0.84 , 23.761 , 0.052
18.55 , 2.0 , 0.84 , 23.63 , 0.052
18.66 , 2.0 , 0.844 , 23.945 , 0.052
18.76 , 2.0 , 0.844 , 23.945 , 0.052
18.85 , 2.0 , 0.833 , 23.735 , 0.052
18.96 , 2.0 , 0.837 , 23.827 , 0.052
19.06 , 2.0 , 0.837 , 23.827 , 0.052
19.16 , 2.0 , 0.833 , 23.696 , 0.052
19.25 , 2.0 , 0.84 , 23.814 , 0.052
19.36 , 2.0 , 0.837 , 23.748 , 0.052
19.46 , 2.0 , 0.837 , 23.748 , 0.052
19.55 , 2.0 , 0.825 , 23.709 , 0.052
19.65 , 2.0 , 0.829 , 23.565 , 0.052
19.76 , 2.0 , 0.829 , 23.565 , 0.052
19.86 , 2.0 , 0.833 , 23.748 , 0.052
19.95 , 2.0 , 0.827 , 23.761 , 0.052
20.05 , 2.0 , 0.827 , 23.761 , 0.052
20.16 , 2.0 , 0.837 , 23.84 , 0.052
20.26 , 2.0 , 0.818 , 23.709 , 0.052
20.35 , 2.0 , 0.825 , 23.722 , 0.052
20.46 , 2.0 , 0.825 , 23.722 , 0.052
20.56 , 2.0 , 0.82 , 23.591 , 0.052
20.66 , 2.0 , 0.823 , 23.761 , 0.052
20.75 , 2.0 , 0.823 , 23.761 , 0.052
20.86 , 2.0 , 0.818 , 23.709 , 0.052
20.96 , 2.0 , 0.82 , 23.604 , 0.052
21.06 , 2.0 , 0.818 , 23.643 , 0.052
21.15 , 2.0 , 0.818 , 23.643 , 0.052
21.26 , 2.0 , 0.823 , 23.552 , 0.052
21.36 , 2.0 , 0.818 , 23.735 , 0.052
21.45 , 2.0 , 0.818 , 23.735 , 0.052
21.55 , 2.0 , 0.818 , 23.565 , 0.052
21.66 , 2.0 , 0.81 , 23.748 , 0.052
21.76 , 2.0 , 0.837 , 23.735 , 0.052
21.85 , 2.0 , 0.837 , 23.735 , 0.052
21.95 , 2.0 , 0.827 , 23.814 , 0.052
22.06 , 2.0 , 0.823 , 23.512 , 0.052
22.16 , 2.0 , 0.823 , 23.512 , 0.052
22.25 , 2.0 , 0.837 , 23.473 , 0.052
22.36 , 2.0 , 0.814 , 23.525 , 0.052
22.46 , 2.0 , 0.814 , 23.525 , 0.052
22.56 , 2.0 , 0.833 , 23.801 , 0.052

End Pause

22.67 , 2.005 , 0.831 , 23.617 , 0.052
22.76 , 2.056 , 0.816 , 23.643 , 0.052
22.89 , 2.144 , 0.816 , 23.643 , 0.052
22.96 , 2.181 , 0.808 , 23.617 , 0.052
23.05 , 2.244 , 0.823 , 23.683 , 0.052
23.18 , 2.324 , 0.823 , 23.683 , 0.052
23.26 , 2.369 , 0.876 , 23.512 , 0.052
23.35 , 2.431 , 0.971 , 23.643 , 0.052
23.48 , 2.513 , 1.069 , 23.604 , 0.052
23.56 , 2.557 , 1.069 , 23.604 , 0.052
23.66 , 2.619 , 1.15 , 23.683 , 0.052
23.77 , 2.693 , 1.216 , 23.801 , 0.052
23.85 , 2.743 , 1.216 , 23.801 , 0.052
23.96 , 2.806 , 1.295 , 23.84 , 0.052
24.07 , 2.882 , 1.324 , 23.905 , 0.052
24.15 , 2.932 , 1.324 , 23.905 , 0.052
24.26 , 2.994 , 1.426 , 24.05 , 0.052
24.36 , 3.062 , 1.514 , 23.853 , 0.052
24.46 , 3.119 , 1.59 , 24.089 , 0.052
24.55 , 3.181 , 1.59 , 24.089 , 0.052
24.68 , 3.262 , 1.66 , 24.194 , 0.052
24.76 , 3.307 , 1.724 , 24.089 , 0.052
24.85 , 3.369 , 1.724 , 24.089 , 0.052
24.98 , 3.451 , 1.841 , 24.286 , 0.052
25.06 , 3.494 , 1.894 , 24.141 , 0.052
25.16 , 3.557 , 1.975 , 24.299 , 0.052
25.29 , 3.641 , 1.975 , 24.299 , 0.052
25.35 , 3.681 , 2.101 , 24.443 , 0.052
25.46 , 3.744 , 2.171 , 24.521 , 0.052
25.57 , 3.82 , 2.171 , 24.521 , 0.052
25.65 , 3.869 , 2.266 , 24.443 , 0.052
25.76 , 3.932 , 2.386 , 24.718 , 0.052
25.86 , 3.996 , 2.492 , 24.797 , 0.052
25.96 , 4.0 , 2.492 , 24.797 , 0.052
26.05 , 4.0 , 2.571 , 25.033 , 0.052
26.16 , 4.0 , 2.677 , 24.862 , 0.052
26.26 , 4.0 , 2.677 , 24.862 , 0.052
26.36 , 4.0 , 2.702 , 24.823 , 0.052
26.45 , 4.0 , 2.666 , 24.849 , 0.052
26.56 , 4.0 , 2.666 , 24.849 , 0.052
26.66 , 4.0 , 2.619 , 24.744 , 0.052
26.75 , 4.0 , 2.592 , 24.81 , 0.052
26.85 , 4.0 , 2.556 , 24.705 , 0.055
26.96 , 4.0 , 2.556 , 24.705 , 0.055
27.06 , 4.0 , 2.543 , 24.784 , 0.055
27.15 , 4.0 , 2.517 , 24.613 , 0.055
27.25 , 4.0 , 2.517 , 24.613 , 0.055
27.36 , 4.0 , 2.485 , 24.652 , 0.059
27.46 , 4.0 , 2.477 , 24.639 , 0.059
27.55 , 4.0 , 2.451 , 24.626 , 0.059
27.66 , 4.0 , 2.451 , 24.626 , 0.059
27.76 , 4.0 , 2.451 , 24.613 , 0.059
27.86 , 4.0 , 2.437 , 24.613 , 0.059
27.95 , 4.0 , 2.437 , 24.613 , 0.059
28.06 , 4.0 , 2.437 , 24.508 , 0.059
28.16 , 4.0 , 2.432 , 24.364 , 0.059
28.25 , 4.0 , 2.432 , 24.364 , 0.059
28.35 , 4.0 , 2.394 , 24.456 , 0.063
28.46 , 4.0 , 2.411 , 24.456 , 0.063
28.56 , 4.0 , 2.405 , 24.535 , 0.063
28.65 , 4.0 , 2.405 , 24.535 , 0.063
28.75 , 4.0 , 2.388 , 24.417 , 0.063
28.86 , 4.0 , 2.381 , 24.417 , 0.063
28.96 , 4.0 , 2.381 , 24.417 , 0.063
29.05 , 4.0 , 2.375 , 24.469 , 0.063
29.16 , 4.0 , 2.343 , 24.43 , 0.063
29.26 , 4.0 , 2.352 , 24.469 , 0.063
29.36 , 4.0 , 2.352 , 24.469 , 0.063
29.45 , 4.0 , 2.362 , 24.403 , 0.063
29.56 , 4.0 , 2.33 , 24.233 , 0.063
29.66 , 4.0 , 2.33 , 24.233 , 0.063
29.76 , 4.0 , 2.326 , 24.364 , 0.063
29.85 , 4.0 , 2.343 , 24.272 , 0.063
29.96 , 4.0 , 2.343 , 24.272 , 0.063
30.06 , 4.0 , 2.337 , 24.233 , 0.063
30.15 , 4.0 , 2.326 , 24.168 , 0.063
30.25 , 4.0 , 2.3 , 24.272 , 0.063
30.36 , 4.0 , 2.3 , 24.272 , 0.063
30.46 , 4.0 , 2.311 , 24.417 , 0.063
30.55 , 4.0 , 2.318 , 24.194 , 0.063
30.65 , 4.0 , 2.318 , 24.194 , 0.063
30.76 , 4.0 , 2.311 , 24.233 , 0.063
30.86 , 4.0 , 2.298 , 24.115 , 0.063
30.95 , 4.0 , 2.281 , 24.194 , 0.063
31.06 , 4.0 , 2.281 , 24.194 , 0.063
31.16 , 4.0 , 2.283 , 24.272 , 0.063
31.26 , 4.0 , 2.269 , 24.272 , 0.063
31.35 , 4.0 , 2.269 , 24.272 , 0.063
31.46 , 4.0 , 2.279 , 24.076 , 0.063
31.56 , 4.0 , 2.277 , 24.194 , 0.063
31.66 , 4.0 , 2.273 , 24.168 , 0.063
31.75 , 4.0 , 2.273 , 24.168 , 0.063
31.86 , 4.0 , 2.271 , 24.325 , 0.063
31.96 , 4.0 , 2.245 , 23.945 , 0.063
32.05 , 4.0 , 2.245 , 23.945 , 0.063
32.15 , 4.0 , 2.247 , 24.089 , 0.063
32.26 , 4.0 , 2.271 , 24.023 , 0.063
32.36 , 4.0 , 2.271 , 24.023 , 0.063
32.45 , 4.0 , 2.245 , 24.194 , 0.063
32.55 , 4.0 , 2.262 , 24.063 , 0.063
32.66 , 4.0 , 2.249 , 24.023 , 0.063
32.76 , 4.0 , 2.249 , 24.023 , 0.063
32.85 , 4.0 , 2.249 , 23.984 , 0.063
32.96 , 4.0 , 2.228 , 24.246 , 0.063
33.06 , 4.0 , 2.228 , 24.246 , 0.063
33.16 , 4.0 , 2.23 , 23.997 , 0.063
33.25 , 4.0 , 2.241 , 24.01 , 0.063
33.36 , 4.0 , 2.249 , 24.036 , 0.063
33.46 , 4.0 , 2.249 , 24.036 , 0.063
33.55 , 4.0 , 2.224 , 24.076 , 0.063
33.65 , 4.0 , 2.241 , 24.102 , 0.063
33.76 , 4.0 , 2.241 , 24.102 , 0.063
33.86 , 4.0 , 2.222 , 23.827 , 0.063
33.95 , 4.0 , 2.22 , 23.866 , 0.063
34.05 , 4.0 , 2.22 , 23.866 , 0.063
34.16 , 4.0 , 2.215 , 23.827 , 0.063
34.26 , 4.0 , 2.215 , 23.945 , 0.063
34.35 , 4.0 , 2.19 , 23.971 , 0.063
34.46 , 4.0 , 2.19 , 23.971 , 0.063
34.56 , 4.0 , 2.186 , 23.932 , 0.063
34.66 , 4.0 , 2.207 , 23.814 , 0.063
34.75 , 4.0 , 2.207 , 23.814 , 0.063
34.86 , 4.0 , 2.196 , 23.866 , 0.063
34.96 , 4.0 , 2.188 , 23.801 , 0.063
35.06 , 4.0 , 2.177 , 23.892 , 0.063
35.15 , 4.0 , 2.177 , 23.892 , 0.063
35.26 , 4.0 , 2.184 , 23.84 , 0.063
35.36 , 4.0 , 2.188 , 23.919 , 0.063
