ech1_s15_30
long
Time , Disp, Load , Pressure, Volume
0.08 , 0.023 , 1.427 , -31.677 , 0.021
0.18 , 0.084 , 1.438 , -31.677 , 0.021
0.29 , 0.146 , 1.427 , -31.625 , 0.021
0.39 , 0.214 , 1.427 , -31.625 , 0.021
0.48 , 0.272 , 1.457 , -31.507 , 0.021
0.58 , 0.334 , 1.538 , -31.428 , 0.021
0.71 , 0.413 , 1.538 , -31.428 , 0.021
0.79 , 0.459 , 1.666 , -30.956 , 0.021
0.88 , 0.522 , 1.77 , -31.061 , 0.021
1.01 , 0.603 , 1.906 , -30.721 , 0.021
1.09 , 0.646 , 1.906 , -30.721 , 0.021
1.19 , 0.708 , 2.004 , -30.629 , 0.021
1.31 , 0.792 , 2.129 , -30.603 , 0.021
1.39 , 0.834 , 2.129 , -30.603 , 0.021
1.49 , 0.896 , 2.218 , -30.419 , 0.021
1.62 , 0.982 , 2.329 , -30.367 , 0.021
1.68 , 1.021 , 2.44 , -30.0 , 0.021
1.79 , 1.083 , 2.44 , -30.0 , 0.021
1.9 , 1.161 , 2.578 , -30.144 , 0.021
1.98 , 1.208 , 2.669 , -31.074 , 0.021
2.08 , 1.272 , 2.669 , -31.074 , 0.021
2.21 , 1.351 , 2.606 , -32.831 , 0.021
2.29 , 1.396 , 1.97 , -32.752 , 0.021
2.38 , 1.459 , 1.236 , -32.962 , 0.021
2.51 , 1.54 , 1.236 , -32.962 , 0.021
2.59 , 1.584 , 1.085 , -32.804 , 0.021
2.69 , 1.646 , 1.087 , -32.87 , 0.021
2.81 , 1.729 , 1.087 , -32.87 , 0.021
2.88 , 1.771 , 1.111 , -32.949 , 0.021
2.99 , 1.834 , 1.185 , -32.896 , 0.021
3.1 , 1.909 , 1.185 , -32.896 , 0.021
3.18 , 1.959 , 1.189 , -32.831 , 0.021
3.29 , 2.022 , 1.245 , -32.857 , 0.021
3.41 , 2.099 , 1.308 , -32.621 , 0.021
3.49 , 2.147 , 1.308 , -32.621 , 0.021
3.58 , 2.209 , 1.374 , -32.595 , 0.021
3.71 , 2.289 , 1.4 , -32.385 , 0.021
3.79 , 2.334 , 1.4 , -32.385 , 0.021
3.88 , 2.397 , 1.461 , -32.424 , 0.021
4.01 , 2.479 , 1.534 , -32.333 , 0.021
4.09 , 2.521 , 1.598 , -32.149 , 0.021
4.19 , 2.584 , 1.598 , -32.149 , 0.021
4.32 , 2.668 , 1.695 , -32.202 , 0.021
4.38 , 2.709 , 1.727 , -31.979 , 0.021
4.49 , 2.771 , 1.727 , -31.979 , 0.021
4.6 , 2.848 , 1.834 , -31.887 , 0.021
4.68 , 2.896 , 1.91 , -31.73 , 0.021
4.79 , 2.959 , 1.91 , -31.73 , 0.021
4.91 , 3.037 , 1.972 , -31.717 , 0.021
4.99 , 3.085 , 2.048 , -31.625 , 0.021
5.08 , 3.147 , 2.165 , -31.69 , 0.021
5.19 , 3.217 , 2.165 , -31.69 , 0.021
5.29 , 3.271 , 2.227 , -31.31 , 0.021
5.38 , 3.334 , 2.299 , -30.996 , 0.021
5.51 , 3.416 , 2.299 , -30.996 , 0.021
5.59 , 3.459 , 2.401 , -31.088 , 0.021
5.69 , 3.521 , 2.469 , -31.009 , 0.021
5.82 , 3.605 , 2.571 , -31.061 , 0.021
5.88 , 3.647 , 2.571 , -31.061 , 0.021
5.99 , 3.709 , 2.669 , -30.734 , 0.021
6.1 , 3.785 , 2.748 , -30.668 , 0.021
6.18 , 3.833 , 2.748 , -30.668 , 0.021
6.28 , 3.897 , 2.797 , -30.694 , 0.021
6.41 , 3.975 , 2.899 , -30.629 , 0.021
6.49 , 4.022 , 2.899 , -30.629 , 0.021
6.58 , 4.084 , 2.984 , -30.196 , 0.021
6.71 , 4.165 , 3.044 , -30.249 , 0.021
6.79 , 4.208 , 3.152 , -30.118 , 0.021
6.89 , 4.271 , 3.152 , -30.118 , 0.021
7.01 , 4.354 , 3.231 , -30.065 , 0.021
7.09 , 4.397 , 3.269 , -29.869 , 0.021
7.19 , 4.459 , 3.269 , -29.869 , 0.021
7.32 , 4.544 , 3.369 , -29.567 , 0.021
7.38 , 4.584 , 3.437 , -29.593 , 0.021
7.49 , 4.646 , 3.516 , -29.449 , 0.021
7.6 , 4.723 , 3.516 , -29.449 , 0.021
7.68 , 4.772 , 3.569 , -29.344 , 0.021
7.78 , 4.834 , 3.641 , -29.554 , 0.021
7.91 , 4.913 , 3.641 , -29.554 , 0.021
7.99 , 4.959 , 3.669 , -29.541 , 0.021
8.08 , 5.0 , 3.69 , -29.397 , 0.021
8.21 , 5.0 , 3.682 , -36.631 , 0.021
8.29 , 5.0 , 3.682 , -36.631 , 0.021
8.39 , 5.0 , 2.886 , -37.103 , 0.021
8.48 , 5.0 , 0.762 , -37.143 , 0.021
8.59 , 5.0 , 0.762 , -37.143 , 0.021
8.69 , 5.0 , 0.201 , -36.789 , 0.021
8.79 , 5.0 , 0.175 , -36.841 , 0.021
8.88 , 5.0 , 0.175 , -36.841 , 0.021
8.99 , 5.0 , 0.164 , -36.631 , 0.021
9.09 , 5.0 , 0.13 , -36.513 , 0.021
9.18 , 5.0 , 0.107 , -36.264 , 0.023
9.28 , 5.0 , 0.107 , -36.264 , 0.023
9.39 , 5.0 , 0.079 , -30.367 , 0.023
9.49 , 5.0 , 0.064 , -28.886 , 0.023
9.58 , 5.0 , 0.064 , -28.886 , 0.023
9.68 , 5.0 , 0.047 , -29.462 , 0.028
9.79 , 5.0 , 0.047 , -29.685 , 0.028
9.89 , 5.0 , 0.03 , -29.305 , 0.028
10.0 , 5.0 , 0.03 , -29.305 , 0.028
10.09 , 5.0 , 0.026 , -29.266 , 0.028
10.19 , 5.0 , 0.015 , -29.305 , 0.028
10.29 , 5.0 , 0.015 , -29.305 , 0.028
10.38 , 5.0 , 0.015 , -29.318 , 0.028
10.49 , 5.0 , 0.003 , -29.161 , 0.028
10.59 , 5.0 , 0.003 , -29.161 , 0.028
10.68 , 5.0 , 0.015 , -29.148 , 0.032
10.78 , 5.0 , 0.022 , -29.24 , 0.032
10.89 , 5.0 , 0.039 , -29.226 , 0.032
10.99 , 5.0 , 0.039 , -29.226 , 0.032
11.08 , 5.0 , 0.022 , -29.226 , 0.032
11.18 , 5.0 , 0.013 , -29.213 , 0.032
11.29 , 5.0 , 0.013 , -29.213 , 0.032
11.39 , 5.0 , 0.018 , -29.305 , 0.032
11.48 , 5.0 , 0.018 , -29.187 , 0.032
11.58 , 5.0 , 0.022 , -29.305 , 0.032
11.69 , 5.0 , 0.022 , -29.305 , 0.032
11.79 , 5.0 , 0.018 , -29.358 , 0.032
11.88 , 5.0 , 0.028 , -29.384 , 0.032
11.99 , 5.0 , 0.028 , -29.384 , 0.032
12.09 , 5.0 , -0.012 , -29.318 , 0.032
12.19 , 5.0 , 0.009 , -29.253 , 0.032
12.28 , 5.0 , 0.009 , -29.253 , 0.032
12.39 , 5.0 , 0.003 , -29.305 , 0.032
12.49 , 5.0 , 0.03 , -29.384 , 0.032
12.58 , 5.0 , 0.022 , -29.292 , 0.032
12.68 , 5.0 , 0.022 , -29.292 , 0.032
12.79 , 5.0 , 0.024 , -29.358 , 0.032
12.89 , 5.0 , 0.018 , -29.253 , 0.032
12.98 , 5.0 , 0.018 , -29.253 , 0.032
13.08 , 5.0 , 0.02 , -29.292 , 0.032
13.19 , 5.0 , 0.015 , -29.371 , 0.032
13.29 , 5.0 , 0.013 , -29.174 , 0.032
13.38 , 5.0 , 0.013 , -29.174 , 0.032
13.49 , 5.0 , 0.013 , -29.279 , 0.032
13.59 , 5.0 , 0.039 , -29.358 , 0.032
13.69 , 5.0 , 0.039 , -29.358 , 0.032
13.78 , 5.0 , 0.018 , -29.476 , 0.032
13.89 , 5.0 , 0.028 , -29.371 , 0.032
13.99 , 5.0 , 0.024 , -29.292 , 0.032
14.09 , 5.0 , 0.024 , -29.292 , 0.032
14.18 , 5.0 , 0.013 , -29.384 , 0.032
14.29 , 5.0 , 0.028 , -29.292 , 0.032
14.39 , 5.0 , 0.028 , -29.292 , 0.032
14.48 , 5.0 , 0.02 , -29.305 , 0.032
14.58 , 5.0 , 0.011 , -29.305 , 0.032
14.69 , 5.0 , 0.011 , -29.305 , 0.032
14.79 , 5.0 , 0.037 , -29.305 , 0.032
14.88 , 5.0 , 0.013 , -29.187 , 0.032
14.98 , 5.0 , 0.024 , -29.41 , 0.032
15.09 , 5.0 , 0.024 , -29.41 , 0.032
15.19 , 5.0 , 0.015 , -29.423 , 0.032
15.28 , 5.0 , 0.049 , -29.397 , 0.032
15.39 , 5.0 , 0.049 , -29.397 , 0.032
15.49 , 5.0 , 0.015 , -29.397 , 0.032
15.59 , 5.0 , 0.015 , -29.358 , 0.032
15.68 , 5.0 , 0.026 , -29.358 , 0.032
15.79 , 5.0 , 0.026 , -29.358 , 0.032
15.89 , 5.0 , 0.032 , -29.397 , 0.032
15.98 , 5.0 , 0.013 , -29.279 , 0.032
16.08 , 5.0 , 0.013 , -29.279 , 0.032
16.19 , 5.0 , 0.015 , -29.331 , 0.032
16.29 , 5.0 , 0.022 , -29.358 , 0.032
16.38 , 5.0 , 0.022 , -29.358 , 0.032
16.48 , 5.0 , 0.022 , -29.423 , 0.032
16.59 , 5.0 , 0.024 , -29.331 , 0.032
16.69 , 5.0 , 0.018 , -29.449 , 0.032
16.78 , 5.0 , 0.018 , -29.449 , 0.032
16.88 , 5.0 , 0.013 , -29.292 , 0.032
16.99 , 5.0 , 0.022 , -29.423 , 0.032
17.09 , 5.0 , 0.022 , -29.423 , 0.032
17.18 , 5.0 , 0.005 , -29.318 , 0.032
17.29 , 5.0 , 0.018 , -29.358 , 0.032
17.39 , 5.0 , 0.024 , -29.462 , 0.032
17.49 , 5.0 , 0.024 , -29.462 , 0.032
17.58 , 5.0 , 0.022 , -29.292 , 0.032
17.69 , 5.0 , 0.022 , -29.358 , 0.032
17.79 , 5.0 , 0.022 , -29.358 , 0.032
17.88 , 5.0 , 0.02 , -29.528 , 0.032
17.98 , 5.0 , 0.015 , -29.292 , 0.032
18.09 , 5.0 , 0.015 , -29.292 , 0.032
18.19 , 5.0 , 0.024 , -29.358 , 0.032
18.28 , 5.0 , 0.024 , -29.226 , 0.032
18.38 , 5.0 , 0.03 , -29.384 , 0.032
18.49 , 5.0 , 0.03 , -29.384 , 0.032
18.59 , 5.0 , 0.035 , -29.397 , 0.032
18.68 , 5.0 , 0.02 , -29.371 , 0.032
18.78 , 5.0 , 0.02 , -29.371 , 0.032
18.89 , 5.0 , 0.03 , -29.397 , 0.032
18.99 , 5.0 , 0.028 , -29.226 , 0.032
19.08 , 5.0 , 0.024 , -29.462 , 0.032
19.19 , 5.0 , 0.024 , -29.462 , 0.032
19.29 , 5.0 , 0.032 , -29.436 , 0.032
19.39 , 5.0 , 0.013 , -29.226 , 0.032
19.48 , 5.0 , 0.013 , -29.226 , 0.032
19.59 , 5.0 , 0.028 , -29.253 , 0.032
19.69 , 5.0 , 0.03 , -29.436 , 0.032
19.78 , 5.0 , 0.024 , -29.358 , 0.032
19.88 , 5.0 , 0.024 , -29.358 , 0.032
19.99 , 5.0 , 0.032 , -29.462 , 0.032
20.09 , 5.0 , 0.037 , -29.187 , 0.032
20.18 , 5.0 , 0.037 , -29.187 , 0.032
20.29 , 5.0 , 0.037 , -29.279 , 0.032
20.39 , 5.0 , 0.037 , -29.423 , 0.032
20.49 , 5.0 , 0.037 , -29.423 , 0.032
20.58 , 5.0 , 0.026 , -29.331 , 0.032
20.69 , 5.0 , 0.03 , -29.462 , 0.032
20.79 , 5.0 , 0.018 , -29.279 , 0.032
20.89 , 5.0 , 0.018 , -29.279 , 0.032
20.98 , 5.0 , 0.026 , -29.331 , 0.032
21.09 , 5.0 , 0.011 , -29.226 , 0.032
21.19 , 5.0 , 0.011 , -29.226 , 0.032
21.28 , 5.0 , 0.013 , -29.226 , 0.032
21.38 , 5.0 , 0.037 , -29.384 , 0.032
21.49 , 5.0 , 0.022 , -29.397 , 0.032
21.59 , 5.0 , 0.022 , -29.397 , 0.032
21.68 , 5.0 , 0.022 , -29.174 , 0.032
21.78 , 5.0 , 0.035 , -29.371 , 0.032
21.89 , 5.0 , 0.035 , -29.371 , 0.032
21.99 , 5.0 , 0.02 , -29.607 , 0.032
22.08 , 5.0 , 0.018 , -29.318 , 0.032
22.18 , 5.0 , 0.018 , -29.318 , 0.032
22.29 , 5.0 , 0.026 , -29.253 , 0.032
22.39 , 5.0 , 0.02 , -29.161 , 0.032
22.48 , 5.0 , 0.02 , -29.397 , 0.032
22.59 , 5.0 , 0.02 , -29.397 , 0.032
22.69 , 5.0 , 0.013 , -29.213 , 0.032
22.79 , 5.0 , 0.015 , -29.344 , 0.032
22.88 , 5.0 , 0.015 , -29.344 , 0.032
22.99 , 5.0 , 0.028 , -29.489 , 0.032
23.09 , 5.0 , 0.022 , -29.279 , 0.032
23.18 , 5.0 , 0.018 , -29.305 , 0.032
23.28 , 5.0 , 0.018 , -29.305 , 0.032
23.39 , 5.0 , 0.032 , -29.226 , 0.032
23.49 , 5.0 , 0.015 , -29.476 , 0.032
23.58 , 5.0 , 0.015 , -29.476 , 0.032
23.68 , 5.0 , 0.013 , -29.213 , 0.032
23.79 , 5.0 , 0.013 , -29.226 , 0.032
23.89 , 5.0 , 0.022 , -29.318 , 0.032
23.98 , 5.0 , 0.022 , -29.318 , 0.032
24.09 , 5.0 , 0.022 , -29.109 , 0.032
24.19 , 5.0 , 0.026 , -29.148 , 0.032
24.29 , 5.0 , 0.026 , -29.148 , 0.032
24.38 , 5.0 , 0.007 , -29.344 , 0.032
24.49 , 5.0 , 0.02 , -29.318 , 0.032
24.59 , 5.0 , 0.02 , -29.318 , 0.032
24.68 , 5.0 , 0.013 , -29.266 , 0.032
24.78 , 5.0 , 0.018 , -29.213 , 0.032
24.89 , 5.0 , 0.018 , -29.213 , 0.032
24.99 , 5.0 , 0.018 , -29.213 , 0.032
25.08 , 5.0 , 0.018 , -29.344 , 0.032
25.18 , 5.0 , 0.005 , -29.397 , 0.032
25.29 , 5.0 , 0.005 , -29.397 , 0.032
25.39 , 5.0 , 0.011 , -29.2 , 0.032
25.48 , 5.0 , 0.015 , -29.292 , 0.032
25.59 , 5.0 , 0.015 , -29.279 , 0.032
25.69 , 5.0 , 0.015 , -29.279 , 0.032
25.79 , 5.0 , 0.003 , -29.331 , 0.032
25.88 , 5.0 , 0.011 , -29.226 , 0.032
25.99 , 5.0 , 0.011 , -29.226 , 0.032
26.09 , 5.0 , 0.02 , -29.226 , 0.032
26.19 , 5.0 , -0.002 , -29.253 , 0.032
26.28 , 5.0 , -0.002 , -29.253 , 0.032
26.39 , 5.0 , 0.022 , -29.161 , 0.032
26.49 , 5.0 , 0.003 , -29.266 , 0.032
26.58 , 5.0 , 0.028 , -29.371 , 0.032
26.68 , 5.0 , 0.028 , -29.371 , 0.032
26.79 , 5.0 , -0.019 , -29.344 , 0.032
26.89 , 5.0 , 0.013 , -29.318 , 0.032
26.98 , 5.0 , 0.013 , -29.318 , 0.032
27.08 , 5.0 , 0.005 , -29.213 , 0.032
27.19 , 5.0 , -0.002 , -29.213 , 0.032
27.29 , 5.0 , -0.004 , -29.2 , 0.032
27.38 , 5.0 , -0.004 , -29.2 , 0.032
27.48 , 5.0 , 0.018 , -29.344 , 0.032
27.59 , 5.0 , 0.024 , -29.226 , 0.032
27.69 , 5.0 , 0.024 , -29.226 , 0.032
27.78 , 5.0 , -0.002 , -29.253 , 0.032
27.89 , 5.0 , 0.011 , -29.187 , 0.032
27.99 , 5.0 , 0.011 , -29.187 , 0.032
28.09 , 5.0 , 0.005 , -29.344 , 0.032
28.18 , 5.0 , 0.013 , -29.2 , 0.032
28.29 , 5.0 , 0.024 , -29.358 , 0.032
28.39 , 5.0 , 0.024 , -29.358 , 0.032
28.48 , 5.0 , 0.007 , -29.476 , 0.032
28.58 , 5.0 , -0.002 , -29.266 , 0.032
28.69 , 5.0 , -0.002 , -29.266 , 0.032
28.79 , 5.0 , 0.007 , -29.331 , 0.032
28.88 , 5.0 , 0.02 , -29.213 , 0.032
28.98 , 5.0 , 0.024 , -29.2 , 0.032
29.09 , 5.0 , 0.024 , -29.2 , 0.032
29.19 , 5.0 , 0.013 , -29.331 , 0.032
29.28 , 5.0 , 0.013 , -29.331 , 0.032
29.39 , 5.0 , 0.013 , -29.331 , 0.032
29.49 , 5.0 , 0.018 , -29.2 , 0.032
29.59 , 5.0 , 0.015 , -29.318 , 0.032
29.68 , 5.0 , 0.009 , -29.187 , 0.032
29.79 , 5.0 , 0.009 , -29.187 , 0.032
29.89 , 5.0 , 0.005 , -29.187 , 0.032
29.98 , 5.0 , 0.003 , -29.384 , 0.032
30.08 , 5.0 , 0.003 , -29.384 , 0.032
30.19 , 5.0 , 0.015 , -29.253 , 0.032
30.29 , 5.0 , 0.005 , -29.331 , 0.032
30.38 , 5.0 , 0.005 , -29.331 , 0.032
30.48 , 5.0 , 0.013 , -29.305 , 0.032
30.59 , 5.0 , 0.005 , -29.292 , 0.032
30.69 , 5.0 , 0.015 , -29.253 , 0.032
30.78 , 5.0 , 0.015 , -29.253 , 0.032
30.89 , 5.0 , -0.002 , -29.331 , 0.032
30.99 , 5.0 , 0.005 , -29.266 , 0.032
31.09 , 5.0 , 0.005 , -29.266 , 0.032
31.18 , 5.0 , 0.035 , -29.397 , 0.032
31.29 , 5.0 , 0.009 , -29.109 , 0.032
31.39 , 5.0 , 0.024 , -29.226 , 0.032
31.49 , 5.0 , 0.024 , -29.226 , 0.032
31.58 , 5.0 , 0.039 , -29.043 , 0.032
31.69 , 5.0 , -0.01 , -29.331 , 0.032
31.79 , 5.0 , -0.01 , -29.331 , 0.032
31.88 , 5.0 , 0.022 , -29.253 , 0.032
31.98 , 5.0 , 0.009 , -29.331 , 0.032
32.09 , 5.0 , 0.009 , -29.331 , 0.032
32.19 , 5.0 , 0.026 , -29.213 , 0.032
32.28 , 5.0 , -0.002 , -29.174 , 0.032
32.38 , 5.0 , 0.015 , -29.174 , 0.032
32.49 , 5.0 , 0.015 , -29.174 , 0.032
32.59 , 5.0 , 0.011 , -29.344 , 0.032
32.68 , 5.0 , 0.015 , -29.292 , 0.032
32.79 , 5.0 , 0.015 , -29.292 , 0.032
32.89 , 5.0 , 0.028 , -29.292 , 0.032
32.99 , 5.0 , 0.018 , -29.292 , 0.032
33.08 , 5.0 , 0.022 , -29.082 , 0.032
33.19 , 5.0 , 0.022 , -29.082 , 0.032
33.29 , 5.0 , 0.032 , -29.226 , 0.032
33.38 , 5.0 , 0.013 , -29.305 , 0.032
33.48 , 5.0 , 0.013 , -29.305 , 0.032
33.59 , 5.0 , 0.011 , -29.292 , 0.032
33.69 , 5.0 , 0.009 , -29.423 , 0.032
33.78 , 5.0 , 0.011 , -29.305 , 0.032
33.88 , 5.0 , 0.011 , -29.305 , 0.032
33.99 , 5.0 , -0.002 , -29.213 , 0.032
34.09 , 5.0 , -0.002 , -29.226 , 0.032
34.18 , 5.0 , -0.002 , -29.226 , 0.032
34.29 , 5.0 , 0.011 , -29.226 , 0.032
34.39 , 5.0 , 0.011 , -29.292 , 0.032
34.49 , 5.0 , 0.011 , -29.292 , 0.032
34.58 , 5.0 , 0.009 , -29.213 , 0.032
34.69 , 5.0 , 0.015 , -29.187 , 0.032
34.79 , 5.0 , -0.014 , -29.253 , 0.032
34.89 , 5.0 , -0.014 , -29.253 , 0.032
34.98 , 5.0 , 0.005 , -29.266 , 0.032
35.09 , 5.0 , 0.017 , -29.109 , 0.032
35.19 , 5.0 , 0.017 , -29.109 , 0.032
35.28 , 5.0 , 0.007 , -29.24 , 0.032
35.38 , 5.0 , 0.003 , -29.213 , 0.032
35.49 , 5.0 , 0.018 , -29.292 , 0.032
35.59 , 5.0 , 0.018 , -29.292 , 0.032
35.68 , 5.0 , 0.02 , -29.095 , 0.032
35.78 , 5.0 , 0.007 , -29.161 , 0.032
35.89 , 5.0 , 0.007 , -29.161 , 0.032
35.99 , 5.0 , 0.0 , -29.305 , 0.032
36.08 , 5.0 , 0.007 , -29.187 , 0.032
36.18 , 5.0 , 0.007 , -29.187 , 0.032
36.29 , 5.0 , 0.013 , -29.056 , 0.032
36.39 , 5.0 , 0.009 , -29.279 , 0.032
36.48 , 5.0 , 0.007 , -29.174 , 0.032
36.59 , 5.0 , 0.007 , -29.174 , 0.032
36.69 , 5.0 , -0.002 , -29.2 , 0.032
36.79 , 5.0 , 0.024 , -29.266 , 0.032
36.88 , 5.0 , 0.024 , -29.266 , 0.032
36.99 , 5.0 , 0.011 , -29.213 , 0.032
37.09 , 5.0 , 0.013 , -29.187 , 0.032
37.18 , 5.0 , 0.024 , -29.213 , 0.032
37.28 , 5.0 , 0.024 , -29.213 , 0.032
37.39 , 5.0 , 0.02 , -29.344 , 0.032
37.49 , 5.0 , 0.003 , -29.318 , 0.032
37.58 , 5.0 , 0.003 , -29.318 , 0.032
37.68 , 5.0 , 0.009 , -29.226 , 0.032
37.79 , 5.0 , 0.011 , -29.135 , 0.032
37.89 , 5.0 , 0.005 , -29.213 , 0.032
37.98 , 5.0 , 0.005 , -29.213 , 0.032
38.09 , 5.0 , 0.011 , -29.292 , 0.032
38.19 , 5.0 , -0.008 , -29.187 , 0.032
38.29 , 5.0 , -0.008 , -29.187 , 0.032
38.38 , 5.0 , -0.002 , -29.266 , 0.032
38.49 , 5.0 , 0.003 , -29.24 , 0.032
38.59 , 5.0 , 0.003 , -29.24 , 0.032
38.68 , 5.0 , -0.004 , -29.266 , 0.032
38.78 , 5.0 , -0.008 , -29.279 , 0.032
38.89 , 5.0 , -0.014 , -29.043 , 0.032
38.99 , 5.0 , -0.014 , -29.043 , 0.032
39.08 , 5.0 , 0.013 , -29.266 , 0.032
39.18 , 5.0 , 0.005 , -28.991 , 0.032
39.29 , 5.0 , 0.005 , -28.991 , 0.032
39.39 , 5.0 , 0.003 , -29.331 , 0.032
39.48 , 5.0 , 0.009 , -29.305 , 0.032
39.58 , 5.0 , 0.009 , -29.358 , 0.032
39.69 , 5.0 , 0.009 , -29.358 , 0.032
39.79 , 5.0 , 0.003 , -29.279 , 0.032
39.88 , 5.0 , 0.009 , -29.253 , 0.032
39.98 , 5.0 , 0.009 , -29.253 , 0.032
40.09 , 5.0 , 0.005 , -29.344 , 0.032
40.19 , 5.0 , 0.005 , -29.266 , 0.032
40.28 , 5.0 , 0.005 , -29.266 , 0.032
40.39 , 5.0 , 0.007 , -29.318 , 0.032
40.49 , 5.0 , -0.01 , -29.331 , 0.032
40.58 , 5.0 , 0.015 , -29.371 , 0.032
40.68 , 5.0 , 0.015 , -29.371 , 0.032
40.79 , 5.0 , 0.02 , -29.292 , 0.032
40.89 , 5.0 , -0.006 , -29.24 , 0.032
40.98 , 5.0 , -0.006 , -29.24 , 0.032
41.08 , 5.0 , -0.002 , -29.331 , 0.032
41.19 , 5.0 , 0.005 , -29.371 , 0.032
41.29 , 5.0 , 0.005 , -29.305 , 0.032
41.38 , 5.0 , 0.005 , -29.305 , 0.032
41.49 , 5.0 , 0.011 , -29.305 , 0.032
41.59 , 5.0 , 0.005 , -29.148 , 0.032
41.69 , 5.0 , 0.005 , -29.148 , 0.032
41.78 , 5.0 , 0.015 , -29.344 , 0.032
41.89 , 5.0 , 0.005 , -29.24 , 0.032
41.99 , 5.0 , 0.005 , -29.24 , 0.032
42.09 , 5.0 , 0.02 , -29.292 , 0.032
42.18 , 5.0 , 0.011 , -29.135 , 0.032
42.29 , 5.0 , 0.011 , -29.174 , 0.032
42.39 , 5.0 , 0.011 , -29.174 , 0.032
42.48 , 5.0 , -0.006 , -29.318 , 0.032
42.58 , 5.0 , 0.003 , -29.331 , 0.032
42.69 , 5.0 , 0.003 , -29.331 , 0.032
42.79 , 5.0 , 0.005 , -29.122 , 0.032
42.88 , 5.0 , -0.006 , -29.358 , 0.032
42.98 , 5.0 , 0.005 , -29.41 , 0.032
43.09 , 5.0 , 0.005 , -29.41 , 0.032
43.19 , 5.0 , 0.003 , -29.331 , 0.032
43.28 , 5.0 , 0.013 , -29.017 , 0.032
43.39 , 5.0 , 0.013 , -29.017 , 0.032
43.49 , 5.0 , 0.003 , -29.266 , 0.032
43.59 , 5.0 , -0.004 , -29.41 , 0.032
43.68 , 5.0 , -0.006 , -29.279 , 0.032
43.79 , 5.0 , -0.006 , -29.279 , 0.032
43.89 , 5.0 , -0.006 , -29.161 , 0.032
43.98 , 5.0 , -0.01 , -29.371 , 0.032
44.08 , 5.0 , -0.01 , -29.371 , 0.032
44.19 , 5.0 , -0.006 , -29.41 , 0.032
44.29 , 5.0 , 0.018 , -29.358 , 0.032
44.38 , 5.0 , 0.018 , -29.358 , 0.032
44.48 , 5.0 , -0.004 , -29.226 , 0.032
44.59 , 5.0 , -0.002 , -29.122 , 0.032
44.69 , 5.0 , 0.007 , -29.358 , 0.032
44.78 , 5.0 , 0.007 , -29.358 , 0.032
44.88 , 5.0 , -0.002 , -29.358 , 0.032
44.99 , 5.0 , 0.003 , -29.253 , 0.032
45.09 , 5.0 , 0.003 , -29.253 , 0.032
45.18 , 5.0 , -0.017 , -29.187 , 0.032
45.29 , 5.0 , 0.011 , -29.082 , 0.032
45.39 , 5.0 , 0.005 , -29.266 , 0.032
45.49 , 5.0 , 0.005 , -29.266 , 0.032
45.58 , 5.0 , 0.007 , -29.423 , 0.032
45.69 , 5.0 , -0.01 , -29.148 , 0.032
45.79 , 5.0 , -0.01 , -29.148 , 0.032
45.88 , 5.0 , 0.011 , -29.292 , 0.032
45.98 , 5.0 , -0.002 , -29.266 , 0.032
46.09 , 5.0 , -0.002 , -29.266 , 0.032
46.19 , 5.0 , -0.004 , -29.082 , 0.032
46.28 , 5.0 , -0.004 , -29.266 , 0.032
46.38 , 5.0 , 0.005 , -29.266 , 0.032
46.49 , 5.0 , 0.005 , -29.266 , 0.032
46.59 , 5.0 , -0.01 , -29.305 , 0.032
46.68 , 5.0 , -0.008 , -29.371 , 0.032
46.79 , 5.0 , -0.008 , -29.371 , 0.032
46.89 , 5.0 , -0.002 , -29.135 , 0.032
46.99 , 5.0 , 0.009 , -29.226 , 0.032
47.08 , 5.0 , -0.002 , -29.292 , 0.032
47.19 , 5.0 , -0.002 , -29.292 , 0.032
47.29 , 5.0 , 0.009 , -29.384 , 0.032
47.38 , 5.0 , 0.003 , -29.095 , 0.032
47.48 , 5.0 , 0.003 , -29.095 , 0.032
47.59 , 5.0 , -0.01 , -29.122 , 0.032
47.69 , 5.0 , -0.01 , -29.017 , 0.032
47.78 , 5.0 , 0.007 , -29.056 , 0.032
47.88 , 5.0 , 0.007 , -29.056 , 0.032
47.99 , 5.0 , 0.018 , -29.161 , 0.032
48.09 , 5.0 , 0.015 , -28.964 , 0.032
48.18 , 5.0 , 0.015 , -28.964 , 0.032
48.28 , 5.0 , 0.009 , -29.03 , 0.032
48.39 , 5.0 , 0.003 , -29.187 , 0.032
48.49 , 5.0 , 0.003 , -29.187 , 0.032
48.58 , 5.0 , 0.005 , -28.886 , 0.032
48.69 , 5.0 , 0.009 , -29.069 , 0.032
48.79 , 5.0 , -0.008 , -29.069 , 0.032
48.89 , 5.0 , -0.008 , -29.069 , 0.032
48.98 , 5.0 , 0.003 , -29.095 , 0.032
49.09 , 5.0 , 0.011 , -28.977 , 0.032
49.19 , 5.0 , 0.011 , -28.977 , 0.032
49.28 , 5.0 , 0.005 , -29.017 , 0.032
49.38 , 5.0 , -0.006 , -29.095 , 0.032
49.49 , 5.0 , -0.002 , -29.017 , 0.032
49.59 , 5.0 , -0.002 , -29.017 , 0.032
49.68 , 5.0 , 0.003 , -29.109 , 0.032
49.78 , 5.0 , -0.002 , -28.991 , 0.032
49.89 , 5.0 , -0.002 , -28.991 , 0.032
49.99 , 5.0 , 0.011 , -29.109 , 0.032
50.08 , 5.0 , 0.011 , -29.095 , 0.032
50.18 , 5.0 , 0.011 , -29.095 , 0.032
50.29 , 5.0 , 0.011 , -29.2 , 0.032
50.39 , 5.0 , -0.008 , -28.991 , 0.032
50.48 , 5.0 , -0.004 , -29.004 , 0.032
50.59 , 5.0 , -0.004 , -29.004 , 0.032
50.69 , 5.0 , 0.0 , -29.017 , 0.032
50.79 , 5.0 , -0.019 , -29.03 , 0.032
50.88 , 5.0 , -0.019 , -29.03 , 0.032
50.99 , 5.0 , -0.004 , -29.095 , 0.032
51.09 , 5.0 , 0.005 , -29.135 , 0.032
51.18 , 5.0 , 0.02 , -29.213 , 0.032
51.28 , 5.0 , 0.02 , -29.213 , 0.032
51.39 , 5.0 , -0.006 , -28.964 , 0.032
51.49 , 5.0 , 0.009 , -29.017 , 0.032
51.58 , 5.0 , 0.009 , -29.017 , 0.032
51.68 , 5.0 , 0.009 , -29.122 , 0.032
51.79 , 5.0 , 0.015 , -29.174 , 0.032
51.89 , 5.0 , 0.015 , -29.174 , 0.032
51.98 , 5.0 , -0.006 , -29.056 , 0.032
52.09 , 5.0 , 0.005 , -29.2 , 0.032
52.19 , 5.0 , -0.006 , -29.069 , 0.032
52.29 , 5.0 , -0.006 , -29.069 , 0.032
52.38 , 5.0 , 0.0 , -29.004 , 0.032
