gonfl_ech3
long
Time , Disp, Load , Pressure, Volume
0.09 , 0.025 , 0.015 , 0.105 , 0
0.22 , 0.097 , 0.015 , 0.105 , 0
0.3 , 0.136 , 0.004 , 0.17 , 0
0.4 , 0.192 , 0.021 , -0.052 , 0
0.52 , 0.266 , 0.021 , -0.052 , 0
0.59 , 0.303 , 0.017 , 0.092 , 0
0.7 , 0.358 , 0.004 , 0.092 , 0
0.81 , 0.426 , 0.007 , -0.0 , 0
0.89 , 0.47 , 0.007 , -0.0 , 0
1.0 , 0.526 , -0.004 , -0.236 , 0
1.12 , 0.595 , 0.015 , -0.262 , 0
1.2 , 0.636 , 0.015 , -0.262 , 0
1.29 , 0.692 , -0.006 , 0.026 , 0
1.42 , 0.764 , 0.017 , -0.288 , 0
1.5 , 0.803 , 0.013 , 0.039 , 0
1.6 , 0.859 , 0.013 , 0.039 , 0
1.72 , 0.933 , 0.0 , -0.21 , 0
1.8 , 0.97 , 0.028 , -0.223 , 0
1.9 , 1.025 , 0.028 , -0.223 , 0
2.03 , 1.101 , 0.004 , -0.38 , 0
2.09 , 1.136 , 0.011 , -0.249 , 0
2.2 , 1.192 , 0.011 , -0.249 , 0
2.31 , 1.261 , -0.01 , -0.249 , 0
2.39 , 1.303 , -0.01 , -0.537 , 0
2.49 , 1.359 , 0.002 , -0.144 , 0
2.62 , 1.43 , 0.002 , -0.144 , 0
2.7 , 1.469 , 0.021 , -0.223 , 0
2.79 , 1.525 , -0.004 , -0.511 , 0
2.92 , 1.599 , -0.004 , -0.511 , 0
3.0 , 1.637 , 0.015 , -0.524 , 0
3.1 , 1.692 , 0.017 , -0.682 , 0
3.23 , 1.767 , 0.009 , -0.603 , 0
3.29 , 1.803 , 0.009 , -0.603 , 0
3.4 , 1.858 , 0.002 , -0.564 , 0
3.51 , 1.927 , -0.015 , -0.55 , 0
3.59 , 1.969 , -0.015 , -0.55 , 0
3.69 , 2.025 , 0.013 , -0.472 , 0
3.8 , 2.087 , 0.015 , -0.485 , 0
3.9 , 2.136 , 0.002 , -0.59 , 0
3.99 , 2.192 , 0.002 , -0.59 , 0
4.12 , 2.265 , 0.0 , -0.786 , 0
4.2 , 2.303 , 0.004 , -0.891 , 0
4.3 , 2.359 , 0.004 , -0.891 , 0
4.43 , 2.433 , 0.019 , -0.682 , 0
4.49 , 2.469 , 0.034 , -0.773 , 0
4.6 , 2.525 , 0.034 , -0.773 , 0
4.71 , 2.593 , -0.002 , -1.022 , 0
4.79 , 2.636 , 0.002 , -0.799 , 0
4.89 , 2.692 , 0.0 , -0.655 , 0
5.0 , 2.753 , 0.0 , -0.655 , 0
5.1 , 2.803 , -0.002 , -1.127 , 0
5.19 , 2.858 , 0.002 , -0.76 , 0
5.3 , 2.922 , 0.002 , -0.76 , 0
5.4 , 2.97 , 0.0 , -1.101 , 0
5.5 , 3.025 , 0.009 , -1.022 , 0
5.61 , 3.091 , 0.026 , -0.813 , 0
5.7 , 3.136 , 0.026 , -0.813 , 0
5.8 , 3.192 , 0.011 , -0.917 , 0
5.91 , 3.259 , 0.0 , -1.088 , 0
5.99 , 3.303 , 0.0 , -1.088 , 0
6.1 , 3.358 , -0.006 , -1.166 , 0
6.2 , 3.419 , -0.002 , -0.996 , 0
6.3 , 3.47 , -0.002 , -0.996 , 0
6.39 , 3.525 , 0.011 , -1.075 , 0
6.5 , 3.588 , 0.011 , -1.18 , 0
6.6 , 3.636 , 0.017 , -1.232 , 0
6.69 , 3.692 , 0.017 , -1.232 , 0
6.82 , 3.765 , -0.004 , -1.219 , 0
6.9 , 3.803 , 0.007 , -1.389 , 0
7.0 , 3.859 , 0.007 , -1.389 , 0
7.13 , 3.934 , -0.002 , -1.271 , 0
7.19 , 3.97 , 0.013 , -1.232 , 0
7.3 , 4.025 , -0.002 , -1.324 , 0
7.41 , 4.094 , -0.002 , -1.324 , 0
7.49 , 4.136 , -0.004 , -1.297 , 0
7.59 , 4.192 , 0.004 , -1.127 , 0
7.7 , 4.254 , 0.004 , -1.127 , 0
7.8 , 4.303 , -0.01 , -1.127 , 0
7.89 , 4.359 , 0.0 , -1.206 , 0
8.02 , 4.432 , 0.0 , -1.206 , 0
8.1 , 4.47 , 0.0 , -1.547 , 0
8.2 , 4.525 , 0.011 , -1.442 , 0
8.33 , 4.601 , 0.007 , -1.442 , 0
8.39 , 4.636 , 0.007 , -1.442 , 0
8.5 , 4.692 , 0.011 , -1.664 , 0
8.61 , 4.76 , -0.004 , -1.468 , 0
8.69 , 4.803 , -0.004 , -1.468 , 0
8.79 , 4.858 , 0.015 , -1.415 , 0
8.9 , 4.92 , 0.009 , -1.756 , 0
9.0 , 4.97 , 0.007 , -1.743 , 0
9.09 , 5.025 , 0.007 , -1.743 , 0
9.22 , 5.098 , 0.009 , -1.822 , 0
9.3 , 5.136 , -0.008 , -1.717 , 0
9.4 , 5.192 , -0.008 , -1.717 , 0
9.51 , 5.258 , -0.004 , -1.638 , 0
9.59 , 5.303 , 0.011 , -1.796 , 0
9.7 , 5.358 , 0.013 , -1.664 , 0
9.81 , 5.426 , 0.013 , -1.664 , 0
9.89 , 5.469 , 0.009 , -1.769 , 0
9.99 , 5.525 , 0.017 , -1.822 , 0
10.12 , 5.595 , 0.017 , -1.822 , 0
10.2 , 5.636 , 0.004 , -2.11 , 0
10.29 , 5.692 , 0.009 , -1.586 , 0
10.42 , 5.764 , 0.009 , -1.586 , 0
10.5 , 5.803 , 0.009 , -2.031 , 0
10.61 , 5.859 , 0.0 , -1.913 , 0
10.72 , 5.933 , 0.004 , -2.11 , 0
10.79 , 5.969 , 0.004 , -2.11 , 0
10.9 , 6.025 , 0.009 , -1.966 , 0
11.01 , 6.092 , 0.002 , -2.084 , 0
11.09 , 6.136 , 0.002 , -2.084 , 0
11.2 , 6.192 , -0.002 , -2.031 , 0
11.31 , 6.261 , 0.013 , -2.084 , 0
11.39 , 6.303 , -0.013 , -2.071 , 0
11.49 , 6.358 , -0.013 , -2.071 , 0
11.62 , 6.43 , 0.0 , -2.045 , 0
11.7 , 6.469 , 0.011 , -2.084 , 0
11.79 , 6.525 , 0.011 , -2.084 , 0
11.92 , 6.599 , 0.015 , -2.136 , 0
12.0 , 6.636 , -0.002 , -2.11 , 0
12.1 , 6.692 , -0.002 , -2.11 , 0
12.21 , 6.759 , 0.009 , -1.992 , 0
12.29 , 6.803 , 0.019 , -2.11 , 0
12.4 , 6.859 , 0.0 , -2.294 , 0
12.51 , 6.927 , 0.0 , -2.294 , 0
12.59 , 6.97 , 0.015 , -2.176 , 0
12.69 , 7.025 , 0.015 , -2.372 , 0
12.8 , 7.087 , 0.015 , -2.372 , 0
12.9 , 7.136 , -0.004 , -2.176 , 0
12.99 , 7.192 , 0.009 , -2.071 , 0
13.12 , 7.265 , 0.007 , -2.149 , 0
13.2 , 7.303 , 0.007 , -2.149 , 0
13.3 , 7.358 , -0.002 , -2.136 , 0
13.43 , 7.434 , 0.013 , -2.385 , 0
13.49 , 7.469 , 0.013 , -2.385 , 0
13.6 , 7.525 , 0.004 , -2.215 , 0
13.71 , 7.593 , 0.011 , -2.189 , 0
13.79 , 7.636 , 0.011 , -2.189 , 0
13.89 , 7.692 , 0.007 , -2.32 , 0
14.0 , 7.753 , 0.002 , -2.346 , 0
14.1 , 7.803 , -0.002 , -2.307 , 0
14.19 , 7.859 , -0.002 , -2.307 , 0
14.32 , 7.931 , 0.026 , -2.215 , 0
14.4 , 7.969 , 0.004 , -2.372 , 0
14.5 , 8.025 , 0.004 , -2.372 , 0
14.62 , 8.1 , 0.009 , -2.477 , 0
14.69 , 8.136 , 0.009 , -2.28 , 0
14.8 , 8.192 , 0.015 , -2.359 , 0
14.91 , 8.259 , 0.015 , -2.359 , 0
14.99 , 8.303 , 0.0 , -2.228 , 0
15.09 , 8.358 , 0.009 , -2.372 , 0
15.22 , 8.428 , 0.009 , -2.372 , 0
15.3 , 8.47 , -0.004 , -2.477 , 0
15.39 , 8.525 , -0.008 , -2.294 , 0
15.5 , 8.588 , 0.004 , -2.438 , 0
15.6 , 8.636 , 0.004 , -2.438 , 0
15.7 , 8.692 , -0.002 , -2.398 , 0
15.82 , 8.766 , -0.004 , -2.346 , 0
15.9 , 8.803 , -0.004 , -2.346 , 0
16.0 , 8.859 , -0.002 , -2.569 , 0
16.13 , 8.935 , 0.009 , -2.647 , 0
16.19 , 8.97 , 0.009 , -2.647 , 0
16.3 , 9.0 , 0.013 , -2.529 , 0
16.41 , 9.0 , 0.015 , -2.621 , 0
16.49 , 9.0 , -0.008 , -2.621 , 0
16.59 , 9.0 , -0.008 , -2.621 , 0
16.7 , 9.0 , 0.013 , -2.438 , 0
16.8 , 9.0 , 0.011 , -2.516 , 0
16.89 , 9.0 , 0.011 , -2.516 , 0
16.99 , 9.0 , 0.0 , -2.438 , 0
17.1 , 9.0 , 0.0 , -2.543 , 0
17.2 , 9.0 , 0.019 , -2.385 , 0
17.29 , 9.0 , 0.019 , -2.385 , 0
17.39 , 9.0 , -0.008 , -2.569 , 0
17.5 , 9.0 , -0.004 , -2.556 , 0
17.6 , 9.0 , -0.004 , -2.556 , 0
17.69 , 9.0 , 0.017 , -2.294 , 0
17.79 , 9.0 , -0.004 , -2.385 , 0
17.9 , 9.0 , -0.004 , -2.385 , 0
18.0 , 9.0 , 0.013 , -2.385 , 0
18.09 , 9.0 , 0.03 , -2.569 , 0
18.19 , 9.0 , -0.013 , -2.556 , 0
18.3 , 9.0 , -0.013 , -2.556 , 0
18.4 , 9.0 , -0.002 , -2.412 , 0
18.49 , 9.0 , 0.015 , -2.346 , 0
18.59 , 9.0 , 0.015 , -2.346 , 0
18.7 , 9.0 , 0.002 , -2.425 , 0
18.8 , 9.0 , 0.024 , -2.543 , 0
18.89 , 9.0 , 0.017 , -2.28 , 0
18.99 , 9.0 , 0.017 , -2.28 , 0
19.1 , 9.0 , -0.004 , -2.477 , 0
19.2 , 9.0 , 0.017 , -2.451 , 0
19.29 , 9.0 , 0.017 , -2.451 , 0
19.39 , 9.0 , 0.021 , -2.412 , 0
19.5 , 9.0 , 0.024 , -2.49 , 0
19.6 , 9.0 , 0.024 , -2.49 , 0
19.69 , 9.0 , -0.006 , -2.307 , 0
19.8 , 9.0 , -0.019 , -2.32 , 0
19.9 , 9.0 , -0.004 , -2.398 , 0
19.99 , 9.0 , -0.004 , -2.398 , 0
20.09 , 9.0 , -0.002 , -2.385 , 0
20.19 , 9.0 , -0.023 , -2.359 , 0
20.3 , 9.0 , -0.023 , -2.359 , 0
20.4 , 9.0 , 0.015 , -2.346 , 0
20.49 , 9.0 , 0.002 , -2.307 , 0
20.6 , 9.0 , -0.004 , -2.464 , 0
20.7 , 9.0 , -0.004 , -2.464 , 0
20.79 , 9.0 , 0.026 , -2.451 , 0
20.89 , 9.0 , 0.017 , -2.464 , 0
21.0 , 9.0 , 0.017 , -2.464 , 0
21.1 , 9.0 , 0.004 , -2.385 , 0
21.19 , 9.0 , 0.011 , -2.7 , 0
21.29 , 9.0 , 0.013 , -2.425 , 0
21.4 , 9.0 , 0.013 , -2.425 , 0
21.5 , 9.0 , 0.015 , -2.503 , 0
21.59 , 9.0 , -0.008 , -2.556 , 0
21.69 , 9.0 , -0.008 , -2.556 , 0
21.8 , 9.0 , 0.011 , -2.582 , 0
21.9 , 9.0 , 0.007 , -2.477 , 0
21.99 , 9.0 , 0.007 , -2.477 , 0
22.09 , 9.0 , 0.004 , -2.385 , 0
22.2 , 9.0 , 0.015 , -2.647 , 0
22.3 , 9.0 , -0.004 , -2.529 , 0
22.39 , 9.0 , -0.004 , -2.529 , 0
22.49 , 9.0 , 0.002 , -2.7 , 0
22.6 , 9.0 , -0.002 , -2.412 , 0
22.7 , 9.0 , -0.002 , -2.412 , 0
22.79 , 9.0 , -0.006 , -2.464 , 0
22.89 , 9.0 , 0.0 , -2.189 , 0
23.0 , 9.0 , 0.007 , -2.398 , 0
23.1 , 9.0 , 0.007 , -2.398 , 0
23.19 , 9.0 , -0.006 , -2.372 , 0
23.29 , 9.0 , -0.008 , -2.385 , 0
23.4 , 9.0 , -0.008 , -2.385 , 0
23.5 , 9.0 , 0.0 , -2.49 , 0
23.59 , 9.0 , 0.013 , -2.438 , 0
23.69 , 9.0 , 0.013 , -2.438 , 0
23.8 , 9.0 , -0.013 , -2.359 , 0
23.9 , 9.0 , 0.021 , -2.333 , 0
23.99 , 9.0 , 0.002 , -2.372 , 0
24.1 , 9.0 , 0.002 , -2.372 , 0
24.2 , 9.0 , 0.013 , -2.398 , 0
24.3 , 9.0 , 0.002 , -2.621 , 0
24.39 , 9.0 , 0.002 , -2.621 , 0
24.5 , 9.0 , -0.013 , -2.425 , 0
24.6 , 9.0 , 0.021 , -2.346 , 0
24.7 , 9.0 , 0.0 , -2.162 , 0
24.79 , 9.0 , 0.0 , -2.162 , 0
24.9 , 9.0 , 0.013 , -2.241 , 0
25.0 , 9.0 , 0.004 , -2.438 , 0
25.1 , 9.0 , 0.004 , -2.438 , 0
25.19 , 9.0 , 0.013 , -2.359 , 0
25.3 , 9.0 , -0.002 , -2.464 , 0
25.4 , 9.0 , -0.002 , -2.464 , 0
25.49 , 9.0 , 0.004 , -2.32 , 0
25.59 , 9.0 , 0.007 , -2.438 , 0
25.7 , 9.0 , 0.002 , -2.254 , 0
25.8 , 9.0 , 0.002 , -2.254 , 0
25.89 , 9.0 , 0.0 , -2.189 , 0
25.99 , 9.0 , -0.008 , -2.241 , 0
26.1 , 9.0 , -0.008 , -2.241 , 0
26.2 , 9.0 , 0.004 , -2.477 , 0
26.29 , 9.0 , -0.006 , -2.438 , 0
26.39 , 9.0 , 0.002 , -2.346 , 0
26.5 , 9.0 , 0.002 , -2.346 , 0
26.6 , 9.0 , -0.002 , -2.28 , 0
26.69 , 9.0 , 0.002 , -2.097 , 0
26.79 , 9.0 , 0.002 , -2.097 , 0
26.9 , 9.0 , -0.006 , -2.346 , 0
27.0 , 9.0 , 0.007 , -2.464 , 0
27.09 , 9.0 , 0.0 , -2.359 , 0
27.19 , 9.0 , 0.0 , -2.359 , 0
27.3 , 9.0 , 0.002 , -2.32 , 0
27.4 , 9.0 , -0.015 , -2.176 , 0
27.49 , 9.0 , -0.015 , -2.176 , 0
27.59 , 9.0 , -0.004 , -2.359 , 0
27.7 , 9.0 , 0.004 , -2.28 , 0
27.8 , 9.0 , 0.004 , -2.28 , 0
27.89 , 9.0 , 0.002 , -2.516 , 0
27.99 , 9.0 , -0.004 , -2.346 , 0
28.1 , 9.0 , 0.009 , -2.398 , 0
28.2 , 9.0 , 0.009 , -2.398 , 0
28.29 , 9.0 , 0.009 , -2.398 , 0
28.39 , 9.0 , 0.011 , -2.569 , 0
28.5 , 9.0 , 0.011 , -2.569 , 0
28.6 , 9.0 , -0.004 , -2.241 , 0
28.69 , 9.0 , 0.011 , -2.529 , 0
28.8 , 9.0 , -0.004 , -2.451 , 0
28.9 , 9.0 , -0.004 , -2.451 , 0
29.0 , 9.0 , 0.019 , -2.32 , 0
29.09 , 9.0 , -0.004 , -2.32 , 0
29.2 , 9.0 , -0.004 , -2.32 , 0
29.3 , 9.0 , 0.0 , -2.49 , 0
29.4 , 9.0 , -0.019 , -2.477 , 0
29.49 , 9.0 , -0.019 , -2.477 , 0
29.6 , 9.0 , -0.013 , -2.621 , 0
29.7 , 9.0 , -0.01 , -2.215 , 0
29.8 , 9.0 , 0.019 , -2.516 , 0
29.89 , 9.0 , 0.019 , -2.516 , 0
30.0 , 9.0 , 0.028 , -2.556 , 0
30.1 , 9.0 , 0.009 , -2.385 , 0
30.19 , 9.0 , 0.009 , -2.385 , 0
30.29 , 9.0 , 0.004 , -2.058 , 0
30.4 , 9.0 , 0.009 , -2.634 , 0
30.5 , 9.0 , -0.013 , -2.346 , 0
30.59 , 9.0 , -0.013 , -2.346 , 0
30.69 , 9.0 , 0.013 , -2.267 , 0
30.8 , 9.0 , 0.019 , -2.425 , 0
30.9 , 9.0 , 0.019 , -2.425 , 0
30.99 , 9.0 , 0.002 , -2.254 , 0
31.09 , 9.0 , 0.0 , -2.215 , 0
31.2 , 9.0 , 0.0 , -2.215 , 0
31.3 , 9.0 , 0.017 , -2.333 , 0
31.39 , 9.0 , -0.01 , -2.438 , 0
31.49 , 9.0 , -0.002 , -2.425 , 0
31.6 , 9.0 , -0.002 , -2.425 , 0
31.7 , 9.0 , 0.017 , -2.529 , 0
31.79 , 9.0 , 0.0 , -2.621 , 0
31.89 , 9.0 , 0.0 , -2.621 , 0
32.0 , 9.0 , 0.017 , -2.608 , 0
32.1 , 9.0 , 0.026 , -2.503 , 0
32.19 , 9.0 , 0.007 , -2.294 , 0
32.29 , 9.0 , 0.007 , -2.294 , 0
32.4 , 9.0 , 0.002 , -2.385 , 0
32.5 , 9.0 , 0.011 , -2.385 , 0
32.59 , 9.0 , 0.011 , -2.385 , 0
32.69 , 9.0 , -0.013 , -2.333 , 0
32.8 , 9.0 , 0.002 , -2.346 , 0
32.9 , 9.0 , 0.021 , -2.28 , 0
32.99 , 9.0 , 0.021 , -2.28 , 0
33.09 , 9.0 , 0.026 , -2.385 , 0
33.2 , 9.0 , -0.008 , -2.49 , 0
33.3 , 9.0 , -0.008 , -2.49 , 0
33.39 , 9.0 , 0.013 , -2.464 , 0
33.5 , 9.0 , 0.009 , -2.543 , 0
33.6 , 9.0 , 0.009 , -2.543 , 0
33.7 , 9.0 , 0.017 , -2.346 , 0
33.79 , 9.0 , -0.01 , -2.267 , 0
33.89 , 9.0 , -0.01 , -2.569 , 0
34.0 , 9.0 , -0.01 , -2.569 , 0
34.1 , 9.0 , 0.03 , -2.28 , 0
34.19 , 9.0 , -0.008 , -2.529 , 0
34.3 , 9.0 , -0.008 , -2.529 , 0
34.4 , 9.0 , 0.007 , -2.28 , 0
34.49 , 9.0 , 0.002 , -2.425 , 0
34.59 , 9.0 , 0.007 , -2.569 , 0
34.7 , 9.0 , 0.007 , -2.569 , 0
34.8 , 9.0 , 0.007 , -2.477 , 0
34.89 , 9.0 , 0.015 , -2.333 , 0
34.99 , 9.0 , 0.015 , -2.333 , 0
35.1 , 9.0 , 0.009 , -2.687 , 0
35.2 , 9.0 , 0.011 , -2.451 , 0
35.29 , 9.0 , 0.011 , -2.451 , 0
35.39 , 9.0 , 0.004 , -2.608 , 0
35.5 , 9.0 , 0.007 , -2.503 , 0
35.6 , 9.0 , 0.011 , -2.949 , 0
35.69 , 9.0 , 0.011 , -2.949 , 0
35.79 , 9.0 , -0.015 , -2.582 , 0
35.9 , 9.0 , -0.01 , -2.7 , 0
36.0 , 9.0 , -0.01 , -2.7 , 0
36.09 , 9.0 , -0.008 , -2.464 , 0
36.19 , 9.0 , -0.01 , -2.49 , 0
36.3 , 9.0 , 0.011 , -2.556 , 0
36.4 , 9.0 , 0.011 , -2.556 , 0
36.49 , 9.0 , -0.002 , -2.359 , 0
36.59 , 9.0 , 0.004 , -2.778 , 0
36.7 , 9.0 , 0.004 , -2.778 , 0
36.8 , 9.0 , 0.013 , -2.608 , 0
36.89 , 9.0 , 0.017 , -2.49 , 0
36.99 , 9.0 , 0.017 , -2.49 , 0
37.1 , 9.0 , -0.008 , -2.49 , 0
37.2 , 9.0 , -0.013 , -2.687 , 0
37.29 , 9.0 , 0.021 , -2.949 , 0
37.39 , 9.0 , 0.021 , -2.949 , 0
37.5 , 9.0 , 0.007 , -2.267 , 0
37.6 , 9.0 , -0.002 , -2.385 , 0
37.69 , 9.0 , -0.002 , -2.385 , 0
37.79 , 9.0 , -0.01 , -3.263 , 0
37.9 , 9.0 , -0.013 , -2.726 , 0
38.0 , 9.0 , 0.0 , -2.687 , 0
38.09 , 9.0 , 0.0 , -2.687 , 0
38.2 , 9.0 , 0.004 , -2.713 , 0
38.3 , 9.0 , 0.011 , -2.805 , 0
38.4 , 9.0 , 0.011 , -2.805 , 0
38.49 , 9.0 , -0.019 , -2.7 , 0
38.6 , 9.0 , -0.002 , -2.674 , 0
38.7 , 9.0 , 0.002 , -2.831 , 0
38.79 , 9.0 , 0.002 , -2.831 , 0
38.89 , 9.0 , 0.007 , -2.621 , 0
39.0 , 9.0 , 0.015 , -2.883 , 0
39.1 , 9.0 , 0.015 , -2.883 , 0
39.19 , 9.0 , 0.015 , -2.87 , 0
39.29 , 9.0 , 0.0 , -2.87 , 0
39.4 , 9.0 , 0.0 , -2.87 , 0
39.5 , 9.0 , 0.011 , -2.778 , 0
39.59 , 9.0 , 0.011 , -2.962 , 0
39.69 , 9.0 , -0.008 , -2.778 , 0
39.8 , 9.0 , -0.008 , -2.778 , 0
39.9 , 9.0 , 0.007 , -2.975 , 0
39.99 , 9.0 , 0.011 , -2.844 , 0
40.09 , 9.0 , 0.011 , -2.844 , 0
40.2 , 9.0 , -0.004 , -2.752 , 0
40.3 , 9.0 , -0.004 , -2.857 , 0
40.39 , 9.0 , 0.007 , -2.451 , 0
40.49 , 9.0 , 0.007 , -2.451 , 0
40.6 , 9.0 , -0.006 , -2.923 , 0
40.7 , 9.0 , 0.011 , -2.975 , 0
40.79 , 9.0 , 0.011 , -2.975 , 0
40.89 , 9.0 , 0.009 , -3.132 , 0
41.0 , 9.0 , 0.011 , -3.001 , 0
41.1 , 9.0 , 0.011 , -3.001 , 0
41.19 , 9.0 , -0.01 , -2.883 , 0
41.29 , 9.0 , 0.019 , -2.923 , 0
41.4 , 9.0 , 0.034 , -2.87 , 0
41.5 , 9.0 , 0.034 , -2.87 , 0
41.59 , 9.0 , 0.007 , -2.962 , 0
41.69 , 9.0 , 0.011 , -2.752 , 0
41.8 , 9.0 , 0.011 , -2.752 , 0
41.9 , 9.0 , 0.015 , -2.844 , 0
41.99 , 9.0 , -0.006 , -2.883 , 0
42.09 , 9.0 , -0.013 , -2.857 , 0
42.2 , 9.0 , -0.013 , -2.857 , 0
42.3 , 9.0 , -0.013 , -2.765 , 0
42.39 , 9.0 , -0.008 , -2.844 , 0
42.49 , 9.0 , -0.008 , -2.844 , 0
42.6 , 9.0 , 0.021 , -3.014 , 0
42.7 , 9.0 , 0.011 , -2.857 , 0
42.79 , 9.0 , 0.013 , -2.988 , 0
42.9 , 9.0 , 0.013 , -2.988 , 0
43.0 , 9.0 , 0.011 , -2.87 , 0
43.1 , 9.0 , 0.007 , -2.962 , 0
43.19 , 9.0 , 0.007 , -2.962 , 0
43.3 , 9.0 , -0.021 , -2.752 , 0
43.4 , 9.0 , -0.006 , -3.054 , 0
43.49 , 9.0 , -0.006 , -3.054 , 0
43.59 , 9.0 , 0.015 , -3.001 , 0
43.7 , 9.0 , 0.004 , -2.739 , 0
43.8 , 9.0 , 0.002 , -2.543 , 0
43.89 , 9.0 , 0.002 , -2.543 , 0
43.99 , 9.0 , 0.009 , -2.647 , 0
44.1 , 9.0 , -0.004 , -3.041 , 0
44.2 , 9.0 , -0.004 , -3.041 , 0
44.29 , 9.0 , 0.007 , -2.91 , 0
44.39 , 9.0 , 0.004 , -3.041 , 0
44.5 , 9.0 , -0.004 , -2.962 , 0
44.6 , 9.0 , -0.004 , -2.962 , 0
44.69 , 9.0 , -0.002 , -2.778 , 0
44.79 , 9.0 , 0.024 , -3.054 , 0
44.9 , 9.0 , 0.024 , -3.054 , 0
45.0 , 9.0 , 0.017 , -2.792 , 0
45.09 , 9.0 , 0.032 , -3.054 , 0
45.19 , 9.0 , 0.032 , -3.054 , 0
45.3 , 9.0 , 0.015 , -2.962 , 0
45.4 , 9.0 , 0.03 , -2.831 , 0
45.49 , 9.0 , 0.015 , -2.844 , 0
45.59 , 9.0 , 0.015 , -2.844 , 0
45.7 , 9.0 , 0.017 , -2.647 , 0
45.8 , 9.0 , 0.019 , -2.739 , 0
45.89 , 9.0 , 0.019 , -2.739 , 0
45.99 , 9.0 , -0.01 , -2.949 , 0
46.1 , 9.0 , -0.002 , -2.975 , 0
46.2 , 9.0 , 0.004 , -2.778 , 0
46.29 , 9.0 , 0.004 , -2.778 , 0
46.39 , 9.0 , -0.008 , -2.949 , 0
46.5 , 9.0 , 0.028 , -2.792 , 0
46.6 , 9.0 , 0.028 , -2.792 , 0
46.69 , 9.0 , 0.009 , -2.91 , 0
46.8 , 9.0 , -0.021 , -2.543 , 0
46.9 , 9.0 , -0.021 , -2.543 , 0
47.0 , 9.0 , 0.0 , -2.752 , 0
47.09 , 9.0 , 0.019 , -2.647 , 0
47.2 , 9.0 , 0.007 , -2.608 , 0
47.3 , 9.0 , 0.007 , -2.608 , 0
47.4 , 9.0 , 0.013 , -2.634 , 0
47.49 , 9.0 , -0.002 , -2.896 , 0
47.59 , 9.0 , -0.002 , -2.896 , 0
47.7 , 9.0 , 0.013 , -2.713 , 0
47.8 , 9.0 , 0.015 , -2.674 , 0
47.89 , 9.0 , 0.015 , -2.857 , 0
48.0 , 9.0 , 0.015 , -2.857 , 0
48.1 , 9.0 , 0.013 , -2.726 , 0
48.19 , 9.0 , 0.028 , -2.818 , 0
48.29 , 9.0 , 0.028 , -2.818 , 0
48.4 , 9.0 , -0.004 , -2.569 , 0
48.5 , 9.0 , 0.007 , -2.621 , 0
48.59 , 9.0 , -0.004 , -2.674 , 0
48.69 , 9.0 , -0.004 , -2.674 , 0
48.8 , 9.0 , 0.002 , -2.687 , 0
48.9 , 9.0 , -0.017 , -2.7 , 0
48.99 , 9.0 , -0.017 , -2.7 , 0
49.09 , 9.0 , 0.009 , -2.556 , 0
49.2 , 9.0 , 0.002 , -2.713 , 0
49.3 , 9.0 , 0.002 , -2.713 , 0
49.39 , 9.0 , -0.004 , -2.831 , 0
49.49 , 9.0 , 0.0 , -2.556 , 0
49.6 , 9.0 , 0.024 , -2.385 , 0
49.7 , 9.0 , 0.024 , -2.385 , 0
49.79 , 9.0 , 0.017 , -2.569 , 0
49.89 , 9.0 , 0.017 , -2.634 , 0
50.0 , 9.0 , 0.017 , -2.634 , 0
50.1 , 9.0 , 0.002 , -2.608 , 0
50.19 , 9.0 , 0.015 , -2.516 , 0
50.29 , 9.0 , -0.006 , -2.7 , 0
50.4 , 9.0 , -0.006 , -2.7 , 0
50.5 , 9.0 , 0.004 , -2.595 , 0
50.59 , 9.0 , 0.013 , -2.451 , 0
50.69 , 9.0 , 0.013 , -2.451 , 0
50.8 , 9.0 , 0.013 , -2.726 , 0
50.9 , 9.0 , -0.021 , -2.556 , 0
50.99 , 9.0 , -0.021 , -2.556 , 0
51.09 , 9.0 , 0.009 , -2.7 , 0
51.2 , 9.0 , 0.015 , -2.464 , 0
51.3 , 9.0 , -0.002 , -2.503 , 0
51.39 , 9.0 , -0.002 , -2.503 , 0
51.5 , 9.0 , -0.021 , -2.189 , 0
51.6 , 9.0 , -0.017 , -2.896 , 0
51.7 , 9.0 , -0.017 , -2.896 , 0
51.79 , 9.0 , 0.015 , -2.346 , 0
51.9 , 9.0 , -0.006 , -2.503 , 0
52.0 , 9.0 , 0.017 , -2.241 , 0
52.1 , 9.0 , 0.017 , -2.241 , 0
52.19 , 9.0 , 0.011 , -2.752 , 0
52.3 , 9.0 , 0.021 , -2.359 , 0
52.4 , 9.0 , 0.021 , -2.359 , 0
52.5 , 9.0 , -0.004 , -2.661 , 0
52.59 , 9.0 , 0.0 , -2.516 , 0
52.7 , 9.0 , 0.0 , -2.516 , 0
52.8 , 9.0 , 0.017 , -2.569 , 0
52.89 , 9.0 , 0.026 , -2.503 , 0
52.99 , 9.0 , -0.023 , -2.372 , 0
53.1 , 9.0 , -0.023 , -2.372 , 0
53.2 , 9.0 , -0.004 , -2.451 , 0
53.29 , 9.0 , 0.0 , -2.634 , 0
53.39 , 9.0 , 0.0 , -2.634 , 0
53.5 , 9.0 , 0.002 , -2.7 , 0
53.6 , 9.0 , 0.011 , -2.503 , 0
53.69 , 9.0 , 0.0 , -2.556 , 0
53.79 , 9.0 , 0.0 , -2.556 , 0
53.9 , 9.0 , -0.004 , -2.49 , 0
54.0 , 9.0 , 0.0 , -2.543 , 0
54.09 , 9.0 , 0.0 , -2.543 , 0
54.19 , 9.0 , 0.002 , -2.726 , 0
54.3 , 9.0 , 0.002 , -2.765 , 0
54.4 , 9.0 , -0.019 , -2.49 , 0
54.49 , 9.0 , -0.019 , -2.49 , 0
54.59 , 9.0 , 0.007 , -2.556 , 0
54.7 , 9.0 , 0.007 , -2.556 , 0
54.8 , 9.0 , 0.007 , -2.556 , 0
54.89 , 9.0 , 0.011 , -2.765 , 0
54.99 , 9.0 , 0.007 , -2.634 , 0
55.1 , 9.0 , 0.007 , -2.634 , 0
55.2 , 9.0 , 0.009 , -2.647 , 0
55.29 , 9.0 , -0.004 , -2.621 , 0
55.39 , 9.0 , -0.004 , -2.687 , 0
55.5 , 9.0 , -0.004 , -2.687 , 0
55.6 , 9.0 , 0.007 , -2.661 , 0
55.69 , 9.0 , 0.013 , -2.569 , 0
55.79 , 9.0 , 0.013 , -2.569 , 0
55.9 , 9.0 , 0.004 , -2.674 , 0
56.0 , 9.0 , 0.0 , -2.647 , 0
56.09 , 9.0 , 0.0 , -2.661 , 0
56.2 , 9.0 , 0.0 , -2.661 , 0
56.3 , 9.0 , 0.015 , -2.923 , 0
56.4 , 9.0 , -0.027 , -2.529 , 0
56.49 , 9.0 , -0.027 , -2.529 , 0
56.59 , 9.0 , -0.002 , -2.634 , 0
56.7 , 9.0 , 0.007 , -2.621 , 0
56.8 , 9.0 , 0.007 , -2.621 , 0
56.89 , 9.0 , 0.002 , -2.556 , 0
57.0 , 9.0 , 0.024 , -2.529 , 0
57.1 , 9.0 , 0.024 , -2.582 , 0
57.19 , 9.0 , 0.024 , -2.582 , 0
57.29 , 9.0 , -0.002 , -2.516 , 0
57.4 , 9.0 , 0.013 , -2.503 , 0
57.5 , 9.0 , 0.013 , -2.503 , 0
57.59 , 9.0 , 0.009 , -2.621 , 0
57.69 , 9.0 , 0.004 , -2.608 , 0
57.8 , 9.0 , 0.0 , -2.674 , 0
57.9 , 9.0 , 0.0 , -2.674 , 0
57.99 , 9.0 , 0.004 , -2.608 , 0
58.09 , 9.0 , 0.004 , -2.556 , 0
58.2 , 9.0 , 0.004 , -2.556 , 0
58.3 , 9.0 , -0.013 , -2.556 , 0
58.39 , 9.0 , 0.03 , -2.595 , 0
58.49 , 9.0 , 0.03 , -2.595 , 0
58.6 , 9.0 , 0.011 , -2.595 , 0
58.7 , 9.0 , 0.007 , -2.621 , 0
58.79 , 9.0 , 0.019 , -2.412 , 0
58.89 , 9.0 , 0.019 , -2.412 , 0
59.0 , 9.0 , 0.004 , -2.529 , 0
59.1 , 9.0 , -0.004 , -2.333 , 0
59.19 , 9.0 , -0.004 , -2.333 , 0
59.29 , 9.0 , -0.002 , -2.661 , 0
59.4 , 9.0 , 0.009 , -2.674 , 0
59.5 , 9.0 , 0.004 , -2.595 , 0
59.59 , 9.0 , 0.004 , -2.595 , 0
59.69 , 9.0 , 0.0 , -2.634 , 0
59.8 , 9.0 , -0.008 , -2.582 , 0
59.9 , 9.0 , -0.008 , -2.582 , 0
59.99 , 9.0 , 0.013 , -2.661 , 0
60.09 , 9.0 , 0.009 , -2.516 , 0
60.2 , 9.0 , 0.011 , -2.621 , 0
60.3 , 9.0 , 0.011 , -2.621 , 0
60.39 , 9.0 , -0.013 , -2.608 , 0
60.5 , 9.0 , 0.004 , -2.674 , 0
60.6 , 9.0 , 0.004 , -2.674 , 0
60.7 , 9.0 , 0.017 , -2.621 , 0
60.79 , 9.0 , 0.004 , -2.516 , 0
