gonfl_ech1_2
circ
Time , Disp, Load , Pressure, Volume
0.09 , 0.026 , -0.064 , -1.14 , 0
0.22 , 0.097 , -0.062 , -1.114 , 0
0.3 , 0.138 , -0.064 , -1.311 , 0
0.4 , 0.193 , -0.064 , -1.311 , 0
0.52 , 0.266 , -0.032 , -0.983 , 0
0.6 , 0.305 , -0.032 , -1.075 , 0
0.7 , 0.36 , -0.032 , -1.075 , 0
0.83 , 0.435 , -0.055 , -1.206 , 0
0.89 , 0.471 , -0.034 , -1.14 , 0
1.0 , 0.527 , -0.041 , -1.075 , 0
1.11 , 0.595 , -0.041 , -1.075 , 0
1.19 , 0.638 , -0.036 , -1.101 , 0
1.29 , 0.693 , -0.03 , -1.232 , 0
1.42 , 0.764 , -0.03 , -1.232 , 0
1.5 , 0.804 , -0.021 , -1.232 , 0
1.59 , 0.86 , -0.004 , -1.245 , 0
1.72 , 0.932 , -0.038 , -1.193 , 0
1.8 , 0.971 , -0.038 , -1.193 , 0
1.9 , 1.027 , -0.028 , -1.206 , 0
2.03 , 1.101 , -0.011 , -1.337 , 0
2.09 , 1.137 , -0.011 , -1.337 , 0
2.2 , 1.194 , -0.028 , -1.245 , 0
2.31 , 1.261 , -0.038 , -1.311 , 0
2.39 , 1.305 , -0.038 , -1.311 , 0
2.51 , 1.36 , -0.038 , -1.297 , 0
2.62 , 1.43 , -0.023 , -1.245 , 0
2.7 , 1.471 , -0.009 , -1.363 , 0
2.79 , 1.527 , -0.009 , -1.363 , 0
2.92 , 1.599 , -0.017 , -1.088 , 0
3.0 , 1.638 , -0.011 , -1.297 , 0
3.1 , 1.693 , -0.011 , -1.297 , 0
3.23 , 1.767 , -0.015 , -1.232 , 0
3.31 , 1.804 , -0.019 , -1.311 , 0
3.4 , 1.86 , -0.017 , -1.52 , 0
3.53 , 1.936 , -0.017 , -1.52 , 0
3.59 , 1.971 , 0.015 , -1.258 , 0
3.7 , 2.027 , -0.015 , -1.442 , 0
3.82 , 2.096 , -0.015 , -1.442 , 0
3.9 , 2.137 , 0.006 , -1.35 , 0
3.99 , 2.193 , -0.004 , -1.507 , 0
4.12 , 2.265 , -0.004 , -1.507 , 0
4.2 , 2.304 , 0.002 , -1.52 , 0
4.3 , 2.36 , 0.006 , -1.494 , 0
4.42 , 2.433 , -0.006 , -1.586 , 0
4.5 , 2.471 , -0.006 , -1.586 , 0
4.6 , 2.526 , -0.0 , -1.494 , 0
4.71 , 2.593 , -0.013 , -1.35 , 0
4.79 , 2.638 , -0.013 , -1.35 , 0
4.9 , 2.693 , 0.03 , -1.442 , 0
5.02 , 2.762 , 0.017 , -1.533 , 0
5.1 , 2.804 , 0.049 , -1.402 , 0
5.19 , 2.86 , 0.049 , -1.402 , 0
5.32 , 2.931 , 0.021 , -1.547 , 0
5.4 , 2.971 , 0.021 , -1.494 , 0
5.5 , 3.026 , 0.021 , -1.494 , 0
5.61 , 3.091 , 0.025 , -1.455 , 0
5.7 , 3.138 , 0.015 , -1.691 , 0
5.8 , 3.193 , 0.015 , -1.691 , 0
5.93 , 3.268 , 0.025 , -1.573 , 0
5.99 , 3.304 , 0.038 , -1.586 , 0
6.1 , 3.36 , 0.053 , -1.415 , 0
6.21 , 3.428 , 0.053 , -1.415 , 0
6.29 , 3.471 , 0.036 , -1.442 , 0
6.39 , 3.527 , 0.032 , -1.73 , 0
6.5 , 3.588 , 0.032 , -1.73 , 0
6.6 , 3.638 , 0.028 , -1.547 , 0
6.69 , 3.693 , 0.045 , -1.455 , 0
6.82 , 3.766 , 0.045 , -1.507 , 0
6.9 , 3.804 , 0.045 , -1.507 , 0
7.0 , 3.86 , 0.057 , -1.586 , 0
7.11 , 3.925 , 0.038 , -1.743 , 0
7.19 , 3.971 , 0.038 , -1.743 , 0
7.3 , 4.027 , 0.051 , -1.678 , 0
7.41 , 4.094 , 0.04 , -1.455 , 0
7.49 , 4.137 , 0.062 , -1.56 , 0
7.61 , 4.193 , 0.062 , -1.56 , 0
7.72 , 4.263 , 0.045 , -1.612 , 0
7.8 , 4.304 , 0.066 , -1.56 , 0
7.89 , 4.36 , 0.066 , -1.56 , 0
8.02 , 4.432 , 0.047 , -1.691 , 0
8.1 , 4.471 , 0.068 , -1.704 , 0
8.2 , 4.527 , 0.068 , -1.704 , 0
8.32 , 4.6 , 0.051 , -1.651 , 0
8.4 , 4.637 , 0.079 , -1.717 , 0
8.5 , 4.693 , 0.07 , -1.835 , 0
8.63 , 4.769 , 0.07 , -1.835 , 0
8.69 , 4.804 , 0.064 , -1.743 , 0
8.8 , 4.86 , 0.089 , -1.782 , 0
8.92 , 4.929 , 0.089 , -1.782 , 0
9.0 , 4.971 , 0.074 , -1.756 , 0
9.09 , 5.027 , 0.07 , -1.586 , 0
9.22 , 5.097 , 0.079 , -1.73 , 0
9.3 , 5.138 , 0.079 , -1.73 , 0
9.4 , 5.193 , 0.1 , -1.756 , 0
9.52 , 5.266 , 0.087 , -1.835 , 0
9.6 , 5.304 , 0.087 , -1.835 , 0
9.7 , 5.36 , 0.089 , -1.625 , 0
9.83 , 5.435 , 0.089 , -1.874 , 0
9.89 , 5.471 , 0.089 , -1.874 , 0
10.0 , 5.527 , 0.096 , -1.691 , 0
10.12 , 5.595 , 0.096 , -1.913 , 0
10.2 , 5.638 , 0.098 , -1.913 , 0
10.29 , 5.693 , 0.098 , -1.913 , 0
10.42 , 5.764 , 0.093 , -1.874 , 0
10.5 , 5.804 , 0.104 , -1.756 , 0
10.59 , 5.86 , 0.104 , -1.756 , 0
10.72 , 5.932 , 0.1 , -1.953 , 0
10.8 , 5.971 , 0.098 , -1.94 , 0
10.9 , 6.027 , 0.098 , -2.018 , 0
11.03 , 6.101 , 0.098 , -2.018 , 0
11.09 , 6.138 , 0.1 , -2.031 , 0
11.2 , 6.193 , 0.117 , -1.822 , 0
11.31 , 6.261 , 0.117 , -1.822 , 0
11.39 , 6.304 , 0.119 , -2.031 , 0
11.49 , 6.36 , 0.14 , -1.9 , 0
11.62 , 6.43 , 0.14 , -1.9 , 0
11.7 , 6.471 , 0.14 , -1.887 , 0
11.79 , 6.527 , 0.13 , -1.953 , 0
11.92 , 6.598 , 0.138 , -1.913 , 0
12.0 , 6.637 , 0.138 , -1.913 , 0
12.1 , 6.693 , 0.127 , -1.887 , 0
12.23 , 6.767 , 0.136 , -2.045 , 0
12.31 , 6.804 , 0.136 , -2.045 , 0
12.4 , 6.86 , 0.136 , -2.018 , 0
12.53 , 6.936 , 0.151 , -1.822 , 0
12.59 , 6.971 , 0.162 , -1.887 , 0
12.7 , 7.026 , 0.162 , -1.887 , 0
12.82 , 7.096 , 0.14 , -2.018 , 0
12.9 , 7.138 , 0.151 , -2.031 , 0
12.99 , 7.193 , 0.151 , -2.031 , 0
13.12 , 7.265 , 0.151 , -2.005 , 0
13.2 , 7.304 , 0.147 , -2.018 , 0
13.3 , 7.36 , 0.149 , -2.254 , 0
13.42 , 7.433 , 0.149 , -2.254 , 0
13.5 , 7.471 , 0.153 , -2.097 , 0
13.6 , 7.527 , 0.174 , -1.913 , 0
13.73 , 7.602 , 0.174 , -1.913 , 0
13.79 , 7.638 , 0.147 , -2.241 , 0
13.9 , 7.693 , 0.168 , -2.123 , 0
14.02 , 7.762 , 0.168 , -2.123 , 0
14.1 , 7.805 , 0.187 , -1.953 , 0
14.19 , 7.86 , 0.183 , -2.123 , 0
14.32 , 7.931 , 0.189 , -2.136 , 0
14.4 , 7.971 , 0.189 , -2.136 , 0
14.5 , 8.026 , 0.179 , -2.058 , 0
14.62 , 8.099 , 0.21 , -1.992 , 0
14.7 , 8.138 , 0.21 , -1.992 , 0
14.8 , 8.193 , 0.196 , -2.189 , 0
14.93 , 8.268 , 0.204 , -2.084 , 0
14.99 , 8.304 , 0.21 , -2.058 , 0
15.1 , 8.36 , 0.21 , -2.058 , 0
15.21 , 8.428 , 0.21 , -2.136 , 0
15.29 , 8.471 , 0.215 , -2.123 , 0
15.39 , 8.527 , 0.215 , -2.123 , 0
15.52 , 8.597 , 0.219 , -2.031 , 0
15.6 , 8.637 , 0.244 , -2.359 , 0
15.69 , 8.693 , 0.244 , -2.359 , 0
15.82 , 8.765 , 0.242 , -2.294 , 0
15.9 , 8.804 , 0.238 , -2.123 , 0
16.0 , 8.86 , 0.238 , -2.097 , 0
16.13 , 8.934 , 0.238 , -2.097 , 0
16.21 , 8.971 , 0.251 , -2.412 , 0
16.3 , 9.027 , 0.268 , -2.359 , 0
16.43 , 9.103 , 0.268 , -2.359 , 0
16.49 , 9.137 , 0.264 , -2.202 , 0
16.61 , 9.193 , 0.281 , -2.32 , 0
16.72 , 9.263 , 0.272 , -2.32 , 0
16.8 , 9.304 , 0.272 , -2.32 , 0
16.89 , 9.36 , 0.266 , -2.267 , 0
17.02 , 9.431 , 0.306 , -2.346 , 0
17.1 , 9.471 , 0.306 , -2.346 , 0
17.2 , 9.527 , 0.308 , -2.556 , 0
17.32 , 9.6 , 0.315 , -2.556 , 0
17.4 , 9.638 , 0.315 , -2.556 , 0
17.5 , 9.693 , 0.327 , -2.398 , 0
17.63 , 9.769 , 0.338 , -2.412 , 0
17.69 , 9.805 , 0.34 , -2.372 , 0
17.8 , 9.86 , 0.34 , -2.372 , 0
17.92 , 9.929 , 0.368 , -2.503 , 0
18.0 , 9.971 , 0.376 , -2.425 , 0
18.09 , 10.026 , 0.376 , -2.425 , 0
18.22 , 10.098 , 0.381 , -2.412 , 0
18.3 , 10.137 , 0.404 , -2.385 , 0
18.4 , 10.193 , 0.429 , -2.516 , 0
18.51 , 10.2 , 0.429 , -2.516 , 0
18.6 , 10.2 , 0.44 , -2.451 , 0
18.7 , 10.2 , 0.485 , -2.556 , 0
18.8 , 10.2 , 0.485 , -2.556 , 0
18.89 , 10.2 , 0.489 , -2.674 , 0
19.0 , 10.2 , 0.481 , -2.556 , 0
19.1 , 10.2 , 0.464 , -2.503 , 0
19.2 , 10.2 , 0.464 , -2.503 , 0
19.29 , 10.2 , 0.466 , -2.569 , 0
19.4 , 10.2 , 0.466 , -2.438 , 0
19.5 , 10.2 , 0.466 , -2.438 , 0
19.59 , 10.2 , 0.453 , -2.674 , 0
19.69 , 10.2 , 0.466 , -2.582 , 0
19.8 , 10.2 , 0.466 , -2.582 , 0
19.9 , 10.2 , 0.444 , -2.634 , 0
19.99 , 10.2 , 0.449 , -2.49 , 0
20.09 , 10.2 , 0.451 , -2.543 , 0
20.2 , 10.2 , 0.451 , -2.543 , 0
20.3 , 10.2 , 0.464 , -2.621 , 0
20.39 , 10.2 , 0.449 , -2.634 , 0
20.49 , 10.2 , 0.449 , -2.634 , 0
20.6 , 10.2 , 0.459 , -2.647 , 0
20.7 , 10.2 , 0.449 , -2.765 , 0
20.79 , 10.2 , 0.442 , -2.687 , 0
20.89 , 10.2 , 0.442 , -2.687 , 0
21.0 , 10.2 , 0.429 , -2.595 , 0
21.1 , 10.2 , 0.434 , -2.883 , 0
21.19 , 10.2 , 0.434 , -2.883 , 0
21.31 , 10.2 , 0.449 , -2.752 , 0
21.4 , 10.2 , 0.455 , -2.661 , 0
21.5 , 10.2 , 0.455 , -2.661 , 0
21.59 , 10.2 , 0.432 , -2.529 , 0
21.7 , 10.2 , 0.436 , -2.661 , 0
21.8 , 10.2 , 0.44 , -2.634 , 0
21.9 , 10.2 , 0.44 , -2.634 , 0
21.99 , 10.2 , 0.429 , -2.582 , 0
22.1 , 10.2 , 0.429 , -2.739 , 0
22.2 , 10.2 , 0.429 , -2.739 , 0
22.3 , 10.2 , 0.434 , -2.739 , 0
22.39 , 10.2 , 0.415 , -2.739 , 0
22.5 , 10.2 , 0.444 , -2.661 , 0
22.6 , 10.2 , 0.444 , -2.661 , 0
22.7 , 10.2 , 0.442 , -2.726 , 0
22.79 , 10.2 , 0.412 , -2.713 , 0
22.9 , 10.2 , 0.412 , -2.713 , 0
23.0 , 10.2 , 0.423 , -2.582 , 0
23.1 , 10.2 , 0.425 , -2.792 , 0
23.19 , 10.2 , 0.423 , -2.805 , 0
23.3 , 10.2 , 0.423 , -2.805 , 0
23.4 , 10.2 , 0.423 , -2.621 , 0
23.5 , 10.2 , 0.423 , -2.805 , 0
23.59 , 10.2 , 0.423 , -2.805 , 0
23.7 , 10.2 , 0.419 , -2.883 , 0
23.8 , 10.2 , 0.429 , -2.726 , 0
23.89 , 10.2 , 0.429 , -2.726 , 0
23.99 , 10.2 , 0.421 , -2.634 , 0
24.1 , 10.2 , 0.425 , -2.621 , 0
24.2 , 10.2 , 0.425 , -2.661 , 0
24.29 , 10.2 , 0.425 , -2.661 , 0
24.39 , 10.2 , 0.425 , -2.752 , 0
24.5 , 10.2 , 0.432 , -2.831 , 0
24.6 , 10.2 , 0.432 , -2.831 , 0
24.69 , 10.2 , 0.429 , -2.674 , 0
24.79 , 10.2 , 0.415 , -2.726 , 0
24.9 , 10.2 , 0.415 , -2.896 , 0
25.0 , 10.2 , 0.415 , -2.896 , 0
25.09 , 10.2 , 0.408 , -2.765 , 0
25.21 , 10.2 , 0.425 , -2.713 , 0
25.3 , 10.2 , 0.425 , -2.713 , 0
25.4 , 10.2 , 0.423 , -2.739 , 0
25.49 , 10.2 , 0.402 , -2.792 , 0
25.61 , 10.2 , 0.402 , -2.792 , 0
25.7 , 10.2 , 0.406 , -2.739 , 0
25.8 , 10.2 , 0.41 , -2.896 , 0
25.89 , 10.2 , 0.415 , -2.582 , 0
26.01 , 10.2 , 0.415 , -2.582 , 0
26.1 , 10.2 , 0.404 , -2.726 , 0
26.2 , 10.2 , 0.417 , -2.726 , 0
26.29 , 10.2 , 0.417 , -2.726 , 0
26.4 , 10.2 , 0.423 , -2.936 , 0
26.5 , 10.2 , 0.406 , -2.844 , 0
26.6 , 10.2 , 0.423 , -2.752 , 0
26.69 , 10.2 , 0.423 , -2.752 , 0
26.8 , 10.2 , 0.408 , -2.543 , 0
26.9 , 10.2 , 0.417 , -2.739 , 0
27.0 , 10.2 , 0.417 , -2.739 , 0
27.09 , 10.2 , 0.408 , -2.975 , 0
27.2 , 10.2 , 0.406 , -2.87 , 0
27.3 , 10.2 , 0.406 , -2.87 , 0
27.4 , 10.2 , 0.421 , -2.831 , 0
27.49 , 10.2 , 0.402 , -2.949 , 0
27.6 , 10.2 , 0.417 , -2.87 , 0
27.7 , 10.2 , 0.417 , -2.87 , 0
27.8 , 10.2 , 0.4 , -2.844 , 0
27.89 , 10.2 , 0.408 , -2.818 , 0
28.0 , 10.2 , 0.408 , -2.818 , 0
28.1 , 10.2 , 0.415 , -2.818 , 0
28.2 , 10.2 , 0.408 , -2.923 , 0
28.29 , 10.2 , 0.415 , -2.7 , 0
28.4 , 10.2 , 0.415 , -2.7 , 0
28.5 , 10.2 , 0.402 , -2.818 , 0
28.59 , 10.2 , 0.423 , -2.608 , 0
28.69 , 10.2 , 0.423 , -2.608 , 0
28.8 , 10.2 , 0.406 , -2.883 , 0
28.9 , 10.2 , 0.419 , -2.896 , 0
28.99 , 10.2 , 0.408 , -2.726 , 0
29.09 , 10.2 , 0.408 , -2.726 , 0
29.2 , 10.2 , 0.41 , -2.883 , 0
29.3 , 10.2 , 0.412 , -2.831 , 0
29.39 , 10.2 , 0.412 , -2.831 , 0
29.51 , 10.2 , 0.41 , -2.792 , 0
29.6 , 10.2 , 0.404 , -2.975 , 0
29.7 , 10.2 , 0.404 , -2.975 , 0
29.79 , 10.2 , 0.421 , -2.857 , 0
29.91 , 10.2 , 0.412 , -2.883 , 0
30.0 , 10.2 , 0.402 , -2.805 , 0
30.1 , 10.2 , 0.402 , -2.805 , 0
30.19 , 10.2 , 0.408 , -2.975 , 0
30.31 , 10.2 , 0.417 , -2.844 , 0
30.4 , 10.2 , 0.417 , -2.844 , 0
30.5 , 10.2 , 0.41 , -2.844 , 0
30.59 , 10.2 , 0.404 , -2.857 , 0
30.71 , 10.2 , 0.389 , -2.896 , 0
30.8 , 10.2 , 0.389 , -2.896 , 0
30.9 , 10.2 , 0.395 , -2.962 , 0
30.99 , 10.2 , 0.381 , -2.91 , 0
31.1 , 10.2 , 0.381 , -2.91 , 0
31.2 , 10.2 , 0.398 , -3.054 , 0
31.3 , 10.2 , 0.395 , -2.896 , 0
31.39 , 10.2 , 0.395 , -2.896 , 0
31.5 , 10.2 , 0.404 , -3.014 , 0
31.6 , 10.2 , 0.391 , -3.067 , 0
31.7 , 10.2 , 0.372 , -2.962 , 0
31.79 , 10.2 , 0.372 , -2.962 , 0
31.9 , 10.2 , 0.383 , -2.923 , 0
32.0 , 10.2 , 0.395 , -2.831 , 0
32.1 , 10.2 , 0.395 , -2.831 , 0
32.19 , 10.2 , 0.391 , -3.027 , 0
32.3 , 10.2 , 0.398 , -3.106 , 0
32.4 , 10.2 , 0.389 , -2.975 , 0
32.5 , 10.2 , 0.389 , -2.975 , 0
32.59 , 10.2 , 0.389 , -3.132 , 0
32.7 , 10.2 , 0.383 , -3.054 , 0
32.8 , 10.2 , 0.383 , -3.054 , 0
32.9 , 10.2 , 0.383 , -3.25 , 0
32.99 , 10.2 , 0.389 , -2.988 , 0
33.1 , 10.2 , 0.398 , -3.08 , 0
33.2 , 10.2 , 0.398 , -3.08 , 0
33.29 , 10.2 , 0.404 , -3.014 , 0
33.39 , 10.2 , 0.393 , -3.067 , 0
33.5 , 10.2 , 0.393 , -3.067 , 0
33.6 , 10.2 , 0.383 , -3.001 , 0
33.69 , 10.2 , 0.4 , -3.067 , 0
33.79 , 10.2 , 0.4 , -3.067 , 0
33.9 , 10.2 , 0.395 , -3.145 , 0
34.0 , 10.2 , 0.385 , -2.91 , 0
34.09 , 10.2 , 0.398 , -3.08 , 0
34.19 , 10.2 , 0.398 , -3.08 , 0
34.3 , 10.2 , 0.4 , -2.949 , 0
34.4 , 10.2 , 0.378 , -3.119 , 0
34.49 , 10.2 , 0.378 , -3.119 , 0
34.61 , 10.2 , 0.395 , -3.027 , 0
34.7 , 10.2 , 0.381 , -3.145 , 0
34.8 , 10.2 , 0.389 , -3.014 , 0
34.89 , 10.2 , 0.389 , -3.014 , 0
35.01 , 10.2 , 0.395 , -3.093 , 0
35.1 , 10.2 , 0.393 , -3.093 , 0
35.2 , 10.2 , 0.393 , -3.093 , 0
35.29 , 10.2 , 0.393 , -3.132 , 0
35.4 , 10.2 , 0.385 , -3.041 , 0
35.5 , 10.2 , 0.385 , -3.041 , 0
35.6 , 10.2 , 0.389 , -3.001 , 0
35.69 , 10.2 , 0.389 , -3.106 , 0
35.8 , 10.2 , 0.389 , -2.988 , 0
35.9 , 10.2 , 0.389 , -2.988 , 0
36.0 , 10.2 , 0.398 , -2.91 , 0
36.09 , 10.2 , 0.402 , -3.198 , 0
36.2 , 10.2 , 0.402 , -3.198 , 0
36.3 , 10.2 , 0.395 , -3.106 , 0
36.4 , 10.2 , 0.387 , -3.237 , 0
36.49 , 10.2 , 0.372 , -3.027 , 0
36.6 , 10.2 , 0.372 , -3.027 , 0
36.7 , 10.2 , 0.385 , -2.988 , 0
36.8 , 10.2 , 0.366 , -3.132 , 0
36.89 , 10.2 , 0.366 , -3.132 , 0
37.0 , 10.2 , 0.37 , -3.211 , 0
37.1 , 10.2 , 0.387 , -3.29 , 0
37.2 , 10.2 , 0.387 , -3.29 , 0
37.29 , 10.2 , 0.366 , -3.329 , 0
37.4 , 10.2 , 0.381 , -3.303 , 0
37.5 , 10.2 , 0.393 , -3.316 , 0
37.59 , 10.2 , 0.393 , -3.316 , 0
37.69 , 10.2 , 0.383 , -3.434 , 0
37.8 , 10.2 , 0.376 , -3.368 , 0
37.9 , 10.2 , 0.376 , -3.368 , 0
37.99 , 10.2 , 0.37 , -3.473 , 0
38.09 , 10.2 , 0.387 , -3.421 , 0
38.2 , 10.2 , 0.372 , -3.486 , 0
38.3 , 10.2 , 0.372 , -3.486 , 0
38.39 , 10.2 , 0.387 , -3.814 , 0
38.49 , 10.2 , 0.376 , -3.617 , 0
38.6 , 10.2 , 0.376 , -3.617 , 0
38.7 , 10.2 , 0.376 , -2.844 , 0
38.79 , 10.2 , 0.376 , -3.761 , 0
38.89 , 10.2 , 0.376 , -3.67 , 0
39.0 , 10.2 , 0.376 , -3.67 , 0
39.1 , 10.2 , 0.359 , -3.303 , 0
39.19 , 10.2 , 0.37 , -3.434 , 0
39.31 , 10.2 , 0.37 , -3.434 , 0
39.4 , 10.2 , 0.376 , -3.381 , 0
39.5 , 10.2 , 0.383 , -3.526 , 0
39.59 , 10.2 , 0.383 , -3.526 , 0
39.71 , 10.2 , 0.376 , -3.394 , 0
39.8 , 10.2 , 0.387 , -3.512 , 0
39.9 , 10.2 , 0.383 , -3.735 , 0
39.99 , 10.2 , 0.383 , -3.735 , 0
40.1 , 10.2 , 0.378 , -3.526 , 0
40.2 , 10.2 , 0.366 , -3.643 , 0
40.3 , 10.2 , 0.366 , -3.643 , 0
40.39 , 10.2 , 0.378 , -3.617 , 0
40.5 , 10.2 , 0.366 , -3.434 , 0
40.6 , 10.2 , 0.378 , -3.578 , 0
40.7 , 10.2 , 0.378 , -3.578 , 0
40.79 , 10.2 , 0.376 , -3.63 , 0
40.9 , 10.2 , 0.387 , -3.499 , 0
41.0 , 10.2 , 0.387 , -3.499 , 0
41.1 , 10.2 , 0.368 , -3.565 , 0
41.19 , 10.2 , 0.378 , -3.526 , 0
41.3 , 10.2 , 0.378 , -3.526 , 0
41.4 , 10.2 , 0.37 , -3.421 , 0
41.5 , 10.2 , 0.381 , -3.683 , 0
41.59 , 10.2 , 0.387 , -3.565 , 0
41.7 , 10.2 , 0.387 , -3.565 , 0
41.8 , 10.2 , 0.387 , -3.552 , 0
41.9 , 10.2 , 0.37 , -3.604 , 0
41.99 , 10.2 , 0.37 , -3.604 , 0
42.1 , 10.2 , 0.387 , -3.604 , 0
42.2 , 10.2 , 0.376 , -3.565 , 0
42.29 , 10.2 , 0.376 , -3.683 , 0
42.39 , 10.2 , 0.376 , -3.683 , 0
42.5 , 10.2 , 0.391 , -3.591 , 0
42.6 , 10.2 , 0.381 , -3.473 , 0
42.69 , 10.2 , 0.381 , -3.473 , 0
42.81 , 10.2 , 0.368 , -3.526 , 0
42.9 , 10.2 , 0.387 , -3.775 , 0
43.0 , 10.2 , 0.387 , -3.775 , 0
43.09 , 10.2 , 0.364 , -3.591 , 0
43.21 , 10.2 , 0.364 , -3.539 , 0
43.3 , 10.2 , 0.372 , -3.63 , 0
43.4 , 10.2 , 0.372 , -3.63 , 0
43.49 , 10.2 , 0.372 , -3.761 , 0
43.61 , 10.2 , 0.4 , -3.657 , 0
43.7 , 10.2 , 0.4 , -3.657 , 0
43.8 , 10.2 , 0.381 , -3.735 , 0
43.89 , 10.2 , 0.364 , -3.617 , 0
44.01 , 10.2 , 0.378 , -3.578 , 0
44.1 , 10.2 , 0.378 , -3.578 , 0
44.2 , 10.2 , 0.366 , -3.63 , 0
44.29 , 10.2 , 0.37 , -3.473 , 0
44.4 , 10.2 , 0.37 , -3.473 , 0
44.5 , 10.2 , 0.376 , -3.683 , 0
44.6 , 10.2 , 0.361 , -3.539 , 0
44.69 , 10.2 , 0.355 , -3.565 , 0
44.8 , 10.2 , 0.355 , -3.565 , 0
44.9 , 10.2 , 0.378 , -3.643 , 0
45.0 , 10.2 , 0.364 , -3.591 , 0
45.09 , 10.2 , 0.364 , -3.591 , 0
45.2 , 10.2 , 0.368 , -3.526 , 0
45.3 , 10.2 , 0.387 , -3.814 , 0
45.4 , 10.2 , 0.387 , -3.814 , 0
45.49 , 10.2 , 0.387 , -3.63 , 0
45.6 , 10.2 , 0.368 , -3.604 , 0
45.7 , 10.2 , 0.372 , -3.827 , 0
45.8 , 10.2 , 0.372 , -3.827 , 0
45.89 , 10.2 , 0.372 , -3.84 , 0
46.0 , 10.2 , 0.381 , -3.683 , 0
46.1 , 10.2 , 0.381 , -3.683 , 0
46.2 , 10.2 , 0.364 , -3.643 , 0
46.29 , 10.2 , 0.364 , -3.657 , 0
46.4 , 10.2 , 0.37 , -3.984 , 0
46.5 , 10.2 , 0.37 , -3.984 , 0
46.59 , 10.2 , 0.355 , -3.906 , 0
46.69 , 10.2 , 0.376 , -3.814 , 0
46.8 , 10.2 , 0.376 , -3.814 , 0
46.9 , 10.2 , 0.366 , -3.906 , 0
46.99 , 10.2 , 0.383 , -3.67 , 0
47.09 , 10.2 , 0.383 , -3.67 , 0
47.2 , 10.2 , 0.385 , -3.919 , 0
47.3 , 10.2 , 0.378 , -3.997 , 0
47.39 , 10.2 , 0.368 , -4.168 , 0
47.49 , 10.2 , 0.368 , -4.168 , 0
47.6 , 10.2 , 0.37 , -4.102 , 0
47.7 , 10.2 , 0.37 , -4.05 , 0
47.79 , 10.2 , 0.37 , -4.05 , 0
47.91 , 10.2 , 0.357 , -3.971 , 0
48.0 , 10.2 , 0.368 , -4.207 , 0
48.1 , 10.2 , 0.376 , -3.984 , 0
48.19 , 10.2 , 0.376 , -3.984 , 0
48.31 , 10.2 , 0.378 , -3.997 , 0
48.4 , 10.2 , 0.364 , -3.919 , 0
48.5 , 10.2 , 0.364 , -3.919 , 0
48.59 , 10.2 , 0.374 , -4.076 , 0
48.71 , 10.2 , 0.383 , -3.892 , 0
48.8 , 10.2 , 0.374 , -3.696 , 0
48.9 , 10.2 , 0.374 , -3.696 , 0
48.99 , 10.2 , 0.374 , -4.024 , 0
49.1 , 10.2 , 0.366 , -3.919 , 0
49.2 , 10.2 , 0.366 , -3.919 , 0
49.3 , 10.2 , 0.366 , -3.906 , 0
49.39 , 10.2 , 0.374 , -3.945 , 0
49.5 , 10.2 , 0.374 , -3.945 , 0
49.6 , 10.2 , 0.37 , -4.076 , 0
49.7 , 10.2 , 0.364 , -4.063 , 0
49.79 , 10.2 , 0.378 , -4.037 , 0
49.9 , 10.2 , 0.378 , -4.037 , 0
50.0 , 10.2 , 0.364 , -3.906 , 0
50.1 , 10.2 , 0.361 , -3.984 , 0
50.19 , 10.2 , 0.361 , -3.984 , 0
50.3 , 10.2 , 0.372 , -3.932 , 0
50.4 , 10.2 , 0.37 , -4.168 , 0
50.5 , 10.2 , 0.381 , -3.906 , 0
50.59 , 10.2 , 0.381 , -3.906 , 0
50.7 , 10.2 , 0.376 , -3.971 , 0
50.8 , 10.2 , 0.364 , -3.997 , 0
50.89 , 10.2 , 0.364 , -3.997 , 0
50.99 , 10.2 , 0.366 , -3.958 , 0
51.1 , 10.2 , 0.364 , -4.05 , 0
51.2 , 10.2 , 0.364 , -4.05 , 0
51.29 , 10.2 , 0.353 , -4.102 , 0
51.39 , 10.2 , 0.351 , -3.958 , 0
51.5 , 10.2 , 0.359 , -4.155 , 0
51.6 , 10.2 , 0.359 , -4.155 , 0
51.69 , 10.2 , 0.37 , -3.971 , 0
51.79 , 10.2 , 0.378 , -3.932 , 0
51.9 , 10.2 , 0.378 , -3.932 , 0
52.0 , 10.2 , 0.378 , -3.892 , 0
52.09 , 10.2 , 0.364 , -3.879 , 0
52.21 , 10.2 , 0.361 , -4.089 , 0
52.3 , 10.2 , 0.361 , -4.089 , 0
52.4 , 10.2 , 0.361 , -3.879 , 0
52.49 , 10.2 , 0.359 , -4.299 , 0
52.61 , 10.2 , 0.359 , -4.299 , 0
52.7 , 10.2 , 0.368 , -3.971 , 0
52.8 , 10.2 , 0.368 , -4.063 , 0
52.89 , 10.2 , 0.368 , -4.063 , 0
53.01 , 10.2 , 0.37 , -3.919 , 0
53.1 , 10.2 , 0.361 , -3.906 , 0
53.2 , 10.2 , 0.349 , -3.971 , 0
53.29 , 10.2 , 0.349 , -3.971 , 0
53.4 , 10.2 , 0.357 , -4.404 , 0
53.5 , 10.2 , 0.361 , -4.115 , 0
53.6 , 10.2 , 0.361 , -4.115 , 0
53.69 , 10.2 , 0.353 , -4.063 , 0
53.8 , 10.2 , 0.349 , -3.997 , 0
53.9 , 10.2 , 0.359 , -4.181 , 0
54.0 , 10.2 , 0.359 , -4.181 , 0
54.09 , 10.2 , 0.349 , -4.142 , 0
54.2 , 10.2 , 0.351 , -3.866 , 0
54.3 , 10.2 , 0.351 , -3.866 , 0
54.4 , 10.2 , 0.344 , -4.05 , 0
54.49 , 10.2 , 0.381 , -4.037 , 0
54.6 , 10.2 , 0.357 , -3.997 , 0
54.7 , 10.2 , 0.357 , -3.997 , 0
54.8 , 10.2 , 0.344 , -4.05 , 0
54.89 , 10.2 , 0.364 , -4.01 , 0
55.0 , 10.2 , 0.364 , -4.01 , 0
55.1 , 10.2 , 0.355 , -4.102 , 0
55.2 , 10.2 , 0.361 , -4.168 , 0
55.29 , 10.2 , 0.361 , -4.168 , 0
55.4 , 10.2 , 0.361 , -4.142 , 0
55.5 , 10.2 , 0.361 , -4.168 , 0
55.59 , 10.2 , 0.357 , -4.128 , 0
55.69 , 10.2 , 0.357 , -4.128 , 0
55.8 , 10.2 , 0.364 , -4.102 , 0
55.9 , 10.2 , 0.359 , -3.906 , 0
55.99 , 10.2 , 0.359 , -3.906 , 0
56.09 , 10.2 , 0.344 , -4.024 , 0
56.2 , 10.2 , 0.355 , -4.05 , 0
56.3 , 10.2 , 0.342 , -4.076 , 0
56.39 , 10.2 , 0.342 , -4.076 , 0
56.49 , 10.2 , 0.364 , -4.168 , 0
56.6 , 10.2 , 0.353 , -4.168 , 0
56.7 , 10.2 , 0.353 , -4.168 , 0
56.79 , 10.2 , 0.361 , -4.194 , 0
56.89 , 10.2 , 0.366 , -4.01 , 0
57.0 , 10.2 , 0.366 , -4.01 , 0
57.1 , 10.2 , 0.353 , -3.997 , 0
57.19 , 10.2 , 0.368 , -4.037 , 0
57.31 , 10.2 , 0.351 , -4.194 , 0
57.4 , 10.2 , 0.351 , -4.194 , 0
57.5 , 10.2 , 0.359 , -4.01 , 0
57.59 , 10.2 , 0.355 , -4.142 , 0
57.7 , 10.2 , 0.355 , -4.142 , 0
57.8 , 10.2 , 0.357 , -4.207 , 0
57.9 , 10.2 , 0.34 , -4.299 , 0
57.99 , 10.2 , 0.34 , -4.168 , 0
58.1 , 10.2 , 0.34 , -4.168 , 0
58.2 , 10.2 , 0.361 , -4.246 , 0
58.3 , 10.2 , 0.366 , -4.338 , 0
58.39 , 10.2 , 0.366 , -4.338 , 0
58.5 , 10.2 , 0.353 , -3.788 , 0
58.6 , 10.2 , 0.359 , -4.115 , 0
58.7 , 10.2 , 0.359 , -4.115 , 0
58.79 , 10.2 , 0.344 , -4.233 , 0
58.9 , 10.2 , 0.359 , -4.351 , 0
59.0 , 10.2 , 0.332 , -4.089 , 0
59.1 , 10.2 , 0.332 , -4.089 , 0
59.19 , 10.2 , 0.342 , -4.22 , 0
59.3 , 10.2 , 0.325 , -4.299 , 0
59.4 , 10.2 , 0.325 , -4.299 , 0
59.5 , 10.2 , 0.334 , -4.102 , 0
59.59 , 10.2 , 0.353 , -4.076 , 0
59.7 , 10.2 , 0.349 , -3.997 , 0
