gonfl_ech1
circ
Time , Disp, Load , Pressure, Volume
0.1 , 0.025 , -0.002 , -0.315 , 0
0.23 , 0.103 , -0.002 , -0.315 , 0
0.29 , 0.136 , -0.007 , -0.406 , 0
0.39 , 0.192 , -0.022 , -0.354 , 0
0.52 , 0.263 , 0.008 , -0.433 , 0
0.6 , 0.303 , 0.008 , -0.433 , 0
0.69 , 0.359 , 0.012 , -0.537 , 0
0.82 , 0.432 , -0.002 , -0.354 , 0
0.9 , 0.47 , -0.002 , -0.354 , 0
1.0 , 0.526 , -0.009 , -0.433 , 0
1.13 , 0.601 , -0.026 , -0.393 , 0
1.19 , 0.637 , -0.026 , -0.393 , 0
1.3 , 0.692 , 0.002 , -0.301 , 0
1.41 , 0.761 , -0.009 , -0.275 , 0
1.49 , 0.804 , -0.013 , -0.275 , 0
1.59 , 0.859 , -0.013 , -0.275 , 0
1.72 , 0.929 , -0.005 , -0.485 , 0
1.8 , 0.97 , 0.004 , -0.197 , 0
1.89 , 1.026 , 0.004 , -0.197 , 0
2.02 , 1.098 , 0.01 , -0.262 , 0
2.1 , 1.137 , -0.005 , -0.328 , 0
2.2 , 1.192 , 0.019 , -0.433 , 0
2.32 , 1.267 , 0.019 , -0.433 , 0
2.41 , 1.304 , 0.012 , -0.406 , 0
2.5 , 1.359 , 0.004 , -0.393 , 0
2.63 , 1.435 , 0.004 , -0.393 , 0
2.69 , 1.47 , 0.015 , -0.341 , 0
2.8 , 1.526 , 0.023 , -0.708 , 0
2.92 , 1.595 , 0.023 , -0.708 , 0
3.0 , 1.637 , 0.019 , -0.629 , 0
3.09 , 1.692 , 0.032 , -0.852 , 0
3.22 , 1.764 , -0.007 , -0.865 , 0
3.3 , 1.803 , -0.007 , -0.865 , 0
3.4 , 1.859 , -0.009 , -0.59 , 0
3.52 , 1.933 , 0.032 , -0.524 , 0
3.6 , 1.97 , 0.032 , -0.524 , 0
3.7 , 2.026 , 0.027 , -0.734 , 0
3.83 , 2.102 , 0.042 , -0.695 , 0
3.89 , 2.137 , 0.021 , -0.537 , 0
4.0 , 2.193 , 0.021 , -0.537 , 0
4.12 , 2.261 , 0.032 , -0.59 , 0
4.2 , 2.304 , 0.053 , -0.76 , 0
4.29 , 2.359 , 0.053 , -0.76 , 0
4.42 , 2.43 , 0.029 , -0.668 , 0
4.5 , 2.47 , 0.017 , -0.682 , 0
4.6 , 2.526 , 0.04 , -1.075 , 0
4.72 , 2.599 , 0.04 , -1.075 , 0
4.8 , 2.637 , 0.068 , -0.786 , 0
4.9 , 2.693 , 0.059 , -1.035 , 0
5.01 , 2.759 , 0.059 , -1.035 , 0
5.09 , 2.803 , 0.051 , -0.97 , 0
5.2 , 2.859 , 0.053 , -0.917 , 0
5.31 , 2.928 , 0.053 , -0.917 , 0
5.39 , 2.97 , 0.049 , -0.066 , 0
5.49 , 3.026 , 0.038 , -1.376 , 0
5.6 , 3.087 , 0.055 , -0.721 , 0
5.7 , 3.137 , 0.055 , -0.721 , 0
5.79 , 3.192 , 0.07 , -1.18 , 0
5.92 , 3.265 , 0.044 , -0.944 , 0
6.0 , 3.303 , 0.044 , -0.944 , 0
6.1 , 3.359 , 0.049 , -1.022 , 0
6.23 , 3.434 , 0.074 , -1.075 , 0
6.29 , 3.47 , 0.07 , -0.931 , 0
6.4 , 3.525 , 0.07 , -0.931 , 0
6.51 , 3.594 , 0.098 , -1.088 , 0
6.59 , 3.637 , 0.053 , -1.14 , 0
6.71 , 3.693 , 0.053 , -1.14 , 0
6.8 , 3.753 , 0.083 , -1.088 , 0
6.9 , 3.804 , 0.072 , -1.127 , 0
6.99 , 3.859 , 0.072 , -1.127 , 0
7.12 , 3.931 , 0.061 , -0.826 , 0
7.2 , 3.97 , 0.068 , -0.97 , 0
7.3 , 4.026 , 0.068 , -0.852 , 0
7.42 , 4.1 , 0.068 , -0.852 , 0
7.49 , 4.136 , 0.063 , -1.114 , 0
7.6 , 4.193 , 0.091 , -1.153 , 0
7.71 , 4.26 , 0.091 , -1.153 , 0
7.79 , 4.304 , 0.102 , -0.957 , 0
7.9 , 4.359 , 0.089 , -1.035 , 0
8.02 , 4.428 , 0.078 , -0.891 , 0
8.1 , 4.47 , 0.078 , -0.891 , 0
8.19 , 4.526 , 0.076 , -1.193 , 0
8.32 , 4.597 , 0.115 , -0.878 , 0
8.4 , 4.637 , 0.115 , -0.878 , 0
8.5 , 4.692 , 0.112 , -1.219 , 0
8.62 , 4.766 , 0.087 , -1.127 , 0
8.7 , 4.804 , 0.087 , -1.127 , 0
8.8 , 4.859 , 0.127 , -1.481 , 0
8.93 , 4.935 , 0.11 , -1.193 , 0
8.99 , 4.97 , 0.119 , -1.166 , 0
9.1 , 5.025 , 0.119 , -1.166 , 0
9.22 , 5.094 , 0.14 , -1.389 , 0
9.3 , 5.136 , 0.129 , -1.127 , 0
9.39 , 5.192 , 0.129 , -1.127 , 0
9.52 , 5.263 , 0.117 , -1.376 , 0
9.6 , 5.303 , 0.125 , -1.533 , 0
9.69 , 5.359 , 0.117 , -1.389 , 0
9.82 , 5.432 , 0.117 , -1.389 , 0
9.9 , 5.47 , 0.123 , -1.337 , 0
10.0 , 5.526 , 0.129 , -1.18 , 0
10.13 , 5.601 , 0.129 , -1.18 , 0
10.19 , 5.637 , 0.136 , -1.311 , 0
10.3 , 5.693 , 0.123 , -1.402 , 0
10.41 , 5.761 , 0.153 , -1.402 , 0
10.49 , 5.803 , 0.153 , -1.402 , 0
10.59 , 5.859 , 0.155 , -1.56 , 0
10.72 , 5.929 , 0.166 , -1.586 , 0
10.8 , 5.97 , 0.166 , -1.586 , 0
10.89 , 6.026 , 0.166 , -1.468 , 0
11.02 , 6.098 , 0.17 , -1.507 , 0
11.1 , 6.136 , 0.17 , -1.507 , 0
11.2 , 6.192 , 0.144 , -1.415 , 0
11.33 , 6.267 , 0.191 , -1.717 , 0
11.39 , 6.303 , 0.189 , -1.691 , 0
11.5 , 6.359 , 0.189 , -1.691 , 0
11.61 , 6.427 , 0.172 , -1.73 , 0
11.69 , 6.47 , 0.176 , -1.678 , 0
11.8 , 6.526 , 0.176 , -1.678 , 0
11.92 , 6.595 , 0.174 , -1.638 , 0
12.0 , 6.637 , 0.178 , -1.73 , 0
12.09 , 6.692 , 0.206 , -1.494 , 0
12.22 , 6.764 , 0.206 , -1.494 , 0
12.3 , 6.803 , 0.193 , -1.743 , 0
12.4 , 6.859 , 0.178 , -1.638 , 0
12.52 , 6.933 , 0.178 , -1.638 , 0
12.6 , 6.97 , 0.202 , -1.743 , 0
12.7 , 7.025 , 0.21 , -1.9 , 0
12.81 , 7.093 , 0.21 , -1.9 , 0
12.89 , 7.137 , 0.206 , -1.743 , 0
13.0 , 7.192 , 0.234 , -0.983 , 0
13.12 , 7.262 , 0.236 , -1.769 , 0
13.2 , 7.303 , 0.236 , -1.769 , 0
13.29 , 7.359 , 0.223 , -1.992 , 0
13.42 , 7.43 , 0.232 , -1.953 , 0
13.5 , 7.47 , 0.232 , -1.953 , 0
13.6 , 7.526 , 0.238 , -1.9 , 0
13.72 , 7.599 , 0.246 , -1.691 , 0
13.8 , 7.636 , 0.257 , -1.809 , 0
13.9 , 7.692 , 0.257 , -1.809 , 0
14.03 , 7.768 , 0.244 , -1.586 , 0
14.09 , 7.803 , 0.304 , -1.468 , 0
14.2 , 7.859 , 0.304 , -1.468 , 0
14.32 , 7.928 , 0.3 , -2.149 , 0
14.39 , 7.97 , 0.304 , -1.691 , 0
14.49 , 8.026 , 0.302 , -1.874 , 0
14.62 , 8.096 , 0.302 , -1.874 , 0
14.7 , 8.137 , 0.336 , -1.848 , 0
14.79 , 8.192 , 0.321 , -1.796 , 0
14.92 , 8.265 , 0.321 , -1.796 , 0
15.0 , 8.303 , 0.344 , -2.005 , 0
15.1 , 8.359 , 0.359 , -1.796 , 0
15.23 , 8.434 , 0.359 , -1.796 , 0
15.29 , 8.47 , 0.387 , -1.913 , 0
15.4 , 8.525 , 0.382 , -2.018 , 0
15.51 , 8.594 , 0.397 , -1.796 , 0
15.59 , 8.637 , 0.397 , -1.796 , 0
15.69 , 8.692 , 0.38 , -1.874 , 0
15.82 , 8.762 , 0.436 , -1.953 , 0
15.9 , 8.803 , 0.436 , -1.953 , 0
15.99 , 8.859 , 0.444 , -2.005 , 0
16.12 , 8.931 , 0.459 , -2.045 , 0
16.2 , 8.97 , 0.521 , -1.848 , 0
16.3 , 9.025 , 0.521 , -1.848 , 0
16.42 , 9.1 , 0.497 , -2.018 , 0
16.5 , 9.137 , 0.506 , -1.913 , 0
16.6 , 9.192 , 0.506 , -1.913 , 0
16.73 , 9.269 , 0.546 , -1.887 , 0
16.79 , 9.303 , 0.55 , -2.018 , 0
16.9 , 9.359 , 0.55 , -2.018 , 0
17.02 , 9.428 , 0.574 , -1.809 , 0
17.1 , 9.47 , 0.619 , -1.651 , 0
17.19 , 9.525 , 0.633 , -1.809 , 0
17.32 , 9.597 , 0.633 , -1.809 , 0
17.4 , 9.637 , 0.67 , -1.717 , 0
17.5 , 9.692 , 0.667 , -1.743 , 0
17.61 , 9.757 , 0.667 , -1.743 , 0
17.7 , 9.803 , 0.725 , -1.861 , 0
17.8 , 9.859 , 0.721 , -1.848 , 0
17.91 , 9.926 , 0.774 , -1.691 , 0
17.99 , 9.97 , 0.774 , -1.691 , 0
18.1 , 10.025 , 0.772 , -1.704 , 0
18.22 , 10.094 , 0.814 , -1.874 , 0
18.3 , 10.136 , 0.814 , -1.874 , 0
18.39 , 10.192 , 0.85 , -1.743 , 0
18.52 , 10.2 , 0.874 , -1.625 , 0
18.61 , 10.2 , 0.897 , -2.018 , 0
18.69 , 10.2 , 0.897 , -2.018 , 0
18.79 , 10.2 , 0.918 , -1.717 , 0
18.9 , 10.2 , 0.895 , -1.678 , 0
19.0 , 10.2 , 0.895 , -1.678 , 0
19.09 , 10.2 , 0.882 , -1.822 , 0
19.19 , 10.2 , 0.876 , -1.743 , 0
19.3 , 10.2 , 0.876 , -1.743 , 0
19.4 , 10.2 , 0.872 , -1.835 , 0
19.49 , 10.2 , 0.857 , -1.664 , 0
19.59 , 10.2 , 0.842 , -1.887 , 0
19.7 , 10.2 , 0.842 , -1.887 , 0
19.8 , 10.2 , 0.844 , -1.586 , 0
19.89 , 10.2 , 0.831 , -1.9 , 0
19.99 , 10.2 , 0.831 , -1.9 , 0
20.1 , 10.2 , 0.829 , -1.678 , 0
20.2 , 10.2 , 0.825 , -1.822 , 0
20.29 , 10.2 , 0.814 , -0.616 , 0
20.39 , 10.2 , 0.814 , -0.616 , 0
20.5 , 10.2 , 0.787 , -2.11 , 0
20.6 , 10.2 , 0.795 , -1.809 , 0
20.69 , 10.2 , 0.795 , -1.809 , 0
20.81 , 10.2 , 0.801 , -1.769 , 0
20.9 , 10.2 , 0.806 , -1.507 , 0
21.0 , 10.2 , 0.806 , -1.507 , 0
21.09 , 10.2 , 0.774 , -1.743 , 0
21.2 , 10.2 , 0.799 , -1.913 , 0
21.3 , 10.2 , 0.772 , -1.625 , 0
21.4 , 10.2 , 0.772 , -1.625 , 0
21.49 , 10.2 , 0.787 , -1.927 , 0
21.6 , 10.2 , 0.772 , -1.796 , 0
21.7 , 10.2 , 0.772 , -1.796 , 0
21.8 , 10.2 , 0.78 , -1.769 , 0
21.89 , 10.2 , 0.77 , -1.9 , 0
22.0 , 10.2 , 0.784 , -1.822 , 0
22.1 , 10.2 , 0.784 , -1.822 , 0
22.2 , 10.2 , 0.77 , -1.835 , 0
22.29 , 10.2 , 0.78 , -2.123 , 0
22.4 , 10.2 , 0.78 , -2.123 , 0
22.5 , 10.2 , 0.789 , -2.608 , 0
22.6 , 10.2 , 0.772 , -1.101 , 0
22.69 , 10.2 , 0.772 , -1.101 , 0
22.8 , 10.2 , 0.776 , -1.756 , 0
22.9 , 10.2 , 0.767 , -1.678 , 0
23.0 , 10.2 , 0.776 , -1.507 , 0
23.09 , 10.2 , 0.776 , -1.507 , 0
23.2 , 10.2 , 0.772 , -1.809 , 0
23.3 , 10.2 , 0.767 , -1.769 , 0
23.39 , 10.2 , 0.767 , -1.769 , 0
23.49 , 10.2 , 0.77 , -1.782 , 0
23.6 , 10.2 , 0.75 , -1.56 , 0
23.7 , 10.2 , 0.761 , -1.612 , 0
23.79 , 10.2 , 0.761 , -1.612 , 0
23.89 , 10.2 , 0.746 , -1.756 , 0
24.0 , 10.2 , 0.767 , -1.664 , 0
24.1 , 10.2 , 0.767 , -1.664 , 0
24.19 , 10.2 , 0.729 , -1.782 , 0
24.29 , 10.2 , 0.74 , -1.664 , 0
24.4 , 10.2 , 0.74 , -1.664 , 0
24.5 , 10.2 , 0.735 , -1.756 , 0
24.59 , 10.2 , 0.74 , -2.333 , 0
24.69 , 10.2 , 0.746 , -1.822 , 0
24.8 , 10.2 , 0.746 , -1.822 , 0
24.9 , 10.2 , 0.735 , -1.848 , 0
24.99 , 10.2 , 0.725 , -2.11 , 0
25.09 , 10.2 , 0.725 , -2.11 , 0
25.2 , 10.2 , 0.729 , -1.913 , 0
25.3 , 10.2 , 0.735 , -1.835 , 0
25.39 , 10.2 , 0.738 , -1.953 , 0
25.5 , 10.2 , 0.738 , -1.953 , 0
25.6 , 10.2 , 0.74 , -2.045 , 0
25.7 , 10.2 , 0.744 , -1.822 , 0
25.79 , 10.2 , 0.744 , -1.822 , 0
25.9 , 10.2 , 0.731 , -1.927 , 0
26.0 , 10.2 , 0.721 , -1.94 , 0
26.1 , 10.2 , 0.725 , -1.979 , 0
26.19 , 10.2 , 0.725 , -1.979 , 0
26.3 , 10.2 , 0.738 , -1.743 , 0
26.4 , 10.2 , 0.714 , -2.241 , 0
26.5 , 10.2 , 0.714 , -2.241 , 0
26.59 , 10.2 , 0.74 , -2.136 , 0
26.7 , 10.2 , 0.738 , -1.874 , 0
26.8 , 10.2 , 0.738 , -1.874 , 0
26.9 , 10.2 , 0.714 , -2.136 , 0
26.99 , 10.2 , 0.731 , -1.992 , 0
27.1 , 10.2 , 0.716 , -1.717 , 0
27.2 , 10.2 , 0.716 , -1.717 , 0
27.3 , 10.2 , 0.733 , -1.782 , 0
27.39 , 10.2 , 0.716 , -2.084 , 0
27.5 , 10.2 , 0.716 , -2.084 , 0
27.6 , 10.2 , 0.723 , -2.149 , 0
27.7 , 10.2 , 0.733 , -1.9 , 0
27.79 , 10.2 , 0.721 , -2.097 , 0
27.9 , 10.2 , 0.721 , -2.097 , 0
28.0 , 10.2 , 0.725 , -1.992 , 0
28.09 , 10.2 , 0.729 , -1.9 , 0
28.19 , 10.2 , 0.729 , -1.9 , 0
28.3 , 10.2 , 0.731 , -2.045 , 0
28.4 , 10.2 , 0.723 , -1.874 , 0
28.49 , 10.2 , 0.723 , -1.874 , 0
28.59 , 10.2 , 0.742 , -1.638 , 0
28.7 , 10.2 , 0.714 , -1.769 , 0
28.8 , 10.2 , 0.718 , -1.769 , 0
28.89 , 10.2 , 0.718 , -1.769 , 0
28.99 , 10.2 , 0.712 , -1.822 , 0
29.1 , 10.2 , 0.71 , -1.651 , 0
29.2 , 10.2 , 0.71 , -1.651 , 0
29.29 , 10.2 , 0.697 , -1.782 , 0
29.39 , 10.2 , 0.729 , -1.625 , 0
29.5 , 10.2 , 0.701 , -1.73 , 0
29.6 , 10.2 , 0.701 , -1.73 , 0
29.69 , 10.2 , 0.704 , -1.822 , 0
29.79 , 10.2 , 0.708 , -1.547 , 0
29.9 , 10.2 , 0.708 , -1.547 , 0
30.0 , 10.2 , 0.716 , -1.638 , 0
30.09 , 10.2 , 0.725 , -1.678 , 0
30.2 , 10.2 , 0.725 , -1.678 , 0
30.3 , 10.2 , 0.695 , -1.756 , 0
30.4 , 10.2 , 0.699 , -1.835 , 0
30.49 , 10.2 , 0.718 , -1.861 , 0
30.6 , 10.2 , 0.718 , -1.861 , 0
30.7 , 10.2 , 0.718 , -2.045 , 0
30.8 , 10.2 , 0.699 , -1.94 , 0
30.89 , 10.2 , 0.699 , -1.94 , 0
31.0 , 10.2 , 0.699 , -1.848 , 0
31.1 , 10.2 , 0.71 , -1.848 , 0
31.2 , 10.2 , 0.71 , -1.861 , 0
31.29 , 10.2 , 0.71 , -1.861 , 0
31.4 , 10.2 , 0.723 , -2.005 , 0
31.5 , 10.2 , 0.718 , -2.071 , 0
31.6 , 10.2 , 0.718 , -2.071 , 0
31.69 , 10.2 , 0.699 , -1.979 , 0
31.8 , 10.2 , 0.689 , -1.861 , 0
31.9 , 10.2 , 0.701 , -1.835 , 0
32.0 , 10.2 , 0.701 , -1.835 , 0
32.09 , 10.2 , 0.701 , -2.176 , 0
32.2 , 10.2 , 0.699 , -1.664 , 0
32.3 , 10.2 , 0.699 , -1.664 , 0
32.39 , 10.2 , 0.71 , -2.294 , 0
32.49 , 10.2 , 0.699 , -2.097 , 0
32.6 , 10.2 , 0.699 , -2.097 , 0
32.7 , 10.2 , 0.689 , -1.927 , 0
32.79 , 10.2 , 0.684 , -2.031 , 0
32.89 , 10.2 , 0.71 , -1.94 , 0
33.0 , 10.2 , 0.71 , -1.94 , 0
33.1 , 10.2 , 0.691 , -2.018 , 0
33.19 , 10.2 , 0.687 , -2.005 , 0
33.29 , 10.2 , 0.687 , -2.005 , 0
33.4 , 10.2 , 0.701 , -2.071 , 0
33.5 , 10.2 , 0.684 , -2.176 , 0
33.59 , 10.2 , 0.693 , -1.874 , 0
33.69 , 10.2 , 0.693 , -1.874 , 0
33.8 , 10.2 , 0.689 , -2.058 , 0
33.9 , 10.2 , 0.701 , -1.756 , 0
33.99 , 10.2 , 0.701 , -1.756 , 0
34.09 , 10.2 , 0.701 , -1.861 , 0
34.2 , 10.2 , 0.689 , -2.241 , 0
34.3 , 10.2 , 0.689 , -2.241 , 0
34.39 , 10.2 , 0.691 , -1.992 , 0
34.49 , 10.2 , 0.695 , -1.704 , 0
34.6 , 10.2 , 0.691 , -1.979 , 0
34.7 , 10.2 , 0.691 , -1.979 , 0
34.79 , 10.2 , 0.704 , -1.887 , 0
34.9 , 10.2 , 0.704 , -1.953 , 0
35.0 , 10.2 , 0.704 , -1.953 , 0
35.1 , 10.2 , 0.691 , -2.005 , 0
35.19 , 10.2 , 0.695 , -2.031 , 0
35.3 , 10.2 , 0.676 , -1.809 , 0
35.4 , 10.2 , 0.676 , -1.809 , 0
35.5 , 10.2 , 0.672 , -1.848 , 0
35.59 , 10.2 , 0.672 , -1.953 , 0
35.7 , 10.2 , 0.672 , -1.953 , 0
35.8 , 10.2 , 0.67 , -1.992 , 0
35.9 , 10.2 , 0.701 , -1.756 , 0
35.99 , 10.2 , 0.653 , -1.887 , 0
36.1 , 10.2 , 0.653 , -1.887 , 0
36.2 , 10.2 , 0.667 , -1.874 , 0
36.3 , 10.2 , 0.684 , -2.005 , 0
36.39 , 10.2 , 0.684 , -2.005 , 0
36.5 , 10.2 , 0.674 , -1.73 , 0
36.6 , 10.2 , 0.661 , -1.691 , 0
36.69 , 10.2 , 0.661 , -1.691 , 0
36.79 , 10.2 , 0.682 , -1.874 , 0
36.9 , 10.2 , 0.665 , -1.848 , 0
37.0 , 10.2 , 0.68 , -2.031 , 0
37.09 , 10.2 , 0.68 , -2.031 , 0
37.19 , 10.2 , 0.684 , -1.782 , 0
37.3 , 10.2 , 0.674 , -2.018 , 0
37.4 , 10.2 , 0.674 , -2.018 , 0
37.49 , 10.2 , 0.674 , -1.887 , 0
37.59 , 10.2 , 0.678 , -1.94 , 0
37.7 , 10.2 , 0.684 , -1.874 , 0
37.8 , 10.2 , 0.684 , -1.874 , 0
37.89 , 10.2 , 0.678 , -1.848 , 0
37.99 , 10.2 , 0.689 , -1.992 , 0
38.1 , 10.2 , 0.689 , -1.992 , 0
38.2 , 10.2 , 0.693 , -1.927 , 0
38.29 , 10.2 , 0.667 , -1.913 , 0
38.39 , 10.2 , 0.667 , -1.913 , 0
38.5 , 10.2 , 0.672 , -1.887 , 0
38.6 , 10.2 , 0.676 , -1.835 , 0
38.69 , 10.2 , 0.689 , -1.861 , 0
38.81 , 10.2 , 0.689 , -1.861 , 0
38.9 , 10.2 , 0.678 , -1.979 , 0
39.0 , 10.2 , 0.665 , -1.94 , 0
39.09 , 10.2 , 0.665 , -1.94 , 0
39.2 , 10.2 , 0.684 , -1.809 , 0
39.3 , 10.2 , 0.67 , -1.953 , 0
39.4 , 10.2 , 0.674 , -2.018 , 0
39.49 , 10.2 , 0.674 , -2.018 , 0
39.6 , 10.2 , 0.691 , -2.005 , 0
39.7 , 10.2 , 0.663 , -1.874 , 0
39.8 , 10.2 , 0.663 , -1.874 , 0
39.89 , 10.2 , 0.682 , -2.005 , 0
40.0 , 10.2 , 0.663 , -1.874 , 0
40.1 , 10.2 , 0.663 , -1.874 , 0
40.2 , 10.2 , 0.672 , -1.94 , 0
40.29 , 10.2 , 0.67 , -2.031 , 0
40.4 , 10.2 , 0.663 , -1.887 , 0
40.5 , 10.2 , 0.663 , -1.887 , 0
40.6 , 10.2 , 0.68 , -1.874 , 0
40.69 , 10.2 , 0.659 , -1.678 , 0
40.8 , 10.2 , 0.659 , -1.678 , 0
40.9 , 10.2 , 0.672 , -1.769 , 0

Pause

41.01 , 10.2 , 0.665 , -1.56 , 0
41.09 , 10.2 , 0.67 , -1.822 , 0
41.2 , 10.2 , 0.67 , -1.822 , 0
41.3 , 10.2 , 0.657 , -1.638 , 0
41.39 , 10.2 , 0.659 , -1.769 , 0
41.49 , 10.2 , 0.659 , -1.769 , 0
41.6 , 10.2 , 0.674 , -1.704 , 0
41.7 , 10.2 , 0.678 , -1.573 , 0
41.79 , 10.2 , 0.678 , -1.966 , 0
41.89 , 10.2 , 0.678 , -1.966 , 0
42.0 , 10.2 , 0.687 , -2.071 , 0
42.1 , 10.2 , 0.674 , -1.94 , 0
42.19 , 10.2 , 0.674 , -1.94 , 0
42.29 , 10.2 , 0.661 , -2.018 , 0
42.4 , 10.2 , 0.67 , -1.953 , 0
42.5 , 10.2 , 0.67 , -1.953 , 0
42.59 , 10.2 , 0.672 , -2.084 , 0
42.69 , 10.2 , 0.67 , -1.927 , 0
42.8 , 10.2 , 0.663 , -1.927 , 0
42.9 , 10.2 , 0.663 , -1.927 , 0
42.99 , 10.2 , 0.672 , -1.94 , 0
43.09 , 10.2 , 0.657 , -1.953 , 0
43.2 , 10.2 , 0.657 , -1.953 , 0
43.3 , 10.2 , 0.665 , -2.018 , 0
43.39 , 10.2 , 0.648 , -2.123 , 0
43.5 , 10.2 , 0.672 , -2.031 , 0
43.6 , 10.2 , 0.672 , -2.031 , 0
43.7 , 10.2 , 0.674 , -2.058 , 0
43.79 , 10.2 , 0.661 , -1.953 , 0
43.9 , 10.2 , 0.661 , -1.953 , 0
44.0 , 10.2 , 0.672 , -1.966 , 0
44.1 , 10.2 , 0.672 , -1.913 , 0
44.19 , 10.2 , 0.672 , -1.913 , 0
44.3 , 10.2 , 0.676 , -2.031 , 0
44.4 , 10.2 , 0.672 , -2.162 , 0
44.5 , 10.2 , 0.667 , -2.123 , 0
44.59 , 10.2 , 0.667 , -2.123 , 0
44.7 , 10.2 , 0.665 , -2.202 , 0
44.8 , 10.2 , 0.665 , -1.979 , 0
44.9 , 10.2 , 0.665 , -1.979 , 0
44.99 , 10.2 , 0.667 , -2.149 , 0
45.1 , 10.2 , 0.663 , -1.861 , 0
45.2 , 10.2 , 0.655 , -2.018 , 0
45.3 , 10.2 , 0.655 , -2.018 , 0
45.39 , 10.2 , 0.674 , -2.162 , 0
45.5 , 10.2 , 0.667 , -2.031 , 0
45.6 , 10.2 , 0.667 , -2.031 , 0
45.7 , 10.2 , 0.665 , -1.992 , 0
45.79 , 10.2 , 0.676 , -1.874 , 0
45.9 , 10.2 , 0.676 , -1.874 , 0
46.0 , 10.2 , 0.659 , -2.045 , 0
46.09 , 10.2 , 0.644 , -2.031 , 0
46.19 , 10.2 , 0.636 , -2.071 , 0
46.3 , 10.2 , 0.636 , -2.071 , 0
46.4 , 10.2 , 0.65 , -2.162 , 0
46.49 , 10.2 , 0.682 , -2.005 , 0
46.59 , 10.2 , 0.682 , -2.005 , 0
46.7 , 10.2 , 0.665 , -1.913 , 0
46.8 , 10.2 , 0.659 , -2.058 , 0
46.89 , 10.2 , 0.657 , -1.9 , 0
46.99 , 10.2 , 0.657 , -1.9 , 0
47.1 , 10.2 , 0.646 , -1.861 , 0
47.2 , 10.2 , 0.655 , -1.822 , 0
47.29 , 10.2 , 0.655 , -1.822 , 0
47.39 , 10.2 , 0.661 , -2.031 , 0
47.5 , 10.2 , 0.65 , -2.045 , 0
47.6 , 10.2 , 0.648 , -2.045 , 0
47.69 , 10.2 , 0.648 , -2.045 , 0
47.81 , 10.2 , 0.659 , -1.743 , 0
47.9 , 10.2 , 0.65 , -2.189 , 0
48.0 , 10.2 , 0.65 , -2.189 , 0
48.09 , 10.2 , 0.657 , -2.202 , 0
48.2 , 10.2 , 0.663 , -1.927 , 0
48.3 , 10.2 , 0.663 , -1.927 , 0
48.4 , 10.2 , 0.659 , -2.097 , 0
48.49 , 10.2 , 0.663 , -1.966 , 0
48.6 , 10.2 , 0.64 , -2.031 , 0
48.7 , 10.2 , 0.64 , -2.031 , 0
48.8 , 10.2 , 0.642 , -1.913 , 0
48.89 , 10.2 , 0.648 , -1.979 , 0
49.0 , 10.2 , 0.648 , -1.979 , 0
49.1 , 10.2 , 0.665 , -2.045 , 0
49.2 , 10.2 , 0.655 , -2.071 , 0
49.29 , 10.2 , 0.644 , -2.123 , 0
49.4 , 10.2 , 0.644 , -2.123 , 0
49.5 , 10.2 , 0.661 , -2.005 , 0
49.6 , 10.2 , 0.644 , -1.979 , 0
49.69 , 10.2 , 0.644 , -1.979 , 0
49.8 , 10.2 , 0.646 , -2.005 , 0
49.9 , 10.2 , 0.659 , -2.018 , 0
49.99 , 10.2 , 0.659 , -2.018 , 0
50.09 , 10.2 , 0.65 , -1.94 , 0
50.2 , 10.2 , 0.646 , -1.835 , 0
50.3 , 10.2 , 0.665 , -1.992 , 0
50.39 , 10.2 , 0.665 , -1.992 , 0
50.49 , 10.2 , 0.653 , -1.992 , 0
50.6 , 10.2 , 0.65 , -1.9 , 0
50.7 , 10.2 , 0.65 , -1.9 , 0
50.79 , 10.2 , 0.646 , -2.071 , 0
50.89 , 10.2 , 0.625 , -2.11 , 0
51.0 , 10.2 , 0.653 , -2.031 , 0
51.1 , 10.2 , 0.653 , -2.031 , 0
51.19 , 10.2 , 0.665 , -2.149 , 0
51.29 , 10.2 , 0.653 , -1.979 , 0
51.4 , 10.2 , 0.653 , -1.979 , 0
51.5 , 10.2 , 0.67 , -2.11 , 0
51.59 , 10.2 , 0.667 , -2.176 , 0
51.69 , 10.2 , 0.667 , -2.176 , 0
51.8 , 10.2 , 0.661 , -2.215 , 0
51.9 , 10.2 , 0.653 , -1.953 , 0
51.99 , 10.2 , 0.657 , -2.11 , 0
52.09 , 10.2 , 0.657 , -2.11 , 0
52.2 , 10.2 , 0.655 , -1.992 , 0
52.3 , 10.2 , 0.638 , -2.071 , 0
52.39 , 10.2 , 0.638 , -2.071 , 0
52.5 , 10.2 , 0.663 , -2.149 , 0
52.6 , 10.2 , 0.655 , -2.084 , 0
52.7 , 10.2 , 0.655 , -2.11 , 0
52.79 , 10.2 , 0.655 , -2.11 , 0
52.9 , 10.2 , 0.646 , -2.123 , 0
53.0 , 10.2 , 0.653 , -2.176 , 0
53.1 , 10.2 , 0.653 , -2.176 , 0
53.19 , 10.2 , 0.653 , -2.149 , 0
53.3 , 10.2 , 0.659 , -2.045 , 0
53.4 , 10.2 , 0.657 , -2.018 , 0
53.5 , 10.2 , 0.657 , -2.018 , 0
53.59 , 10.2 , 0.644 , -1.874 , 0
53.7 , 10.2 , 0.657 , -2.176 , 0
53.8 , 10.2 , 0.657 , -2.176 , 0
53.9 , 10.2 , 0.67 , -2.005 , 0
53.99 , 10.2 , 0.665 , -2.058 , 0
54.1 , 10.2 , 0.665 , -2.058 , 0
54.2 , 10.2 , 0.629 , -2.005 , 0
54.3 , 10.2 , 0.648 , -1.913 , 0
54.39 , 10.2 , 0.653 , -2.162 , 0
54.5 , 10.2 , 0.653 , -2.162 , 0
54.6 , 10.2 , 0.629 , -1.848 , 0
54.7 , 10.2 , 0.64 , -1.913 , 0
54.79 , 10.2 , 0.64 , -1.913 , 0
54.9 , 10.2 , 0.619 , -2.123 , 0
55.0 , 10.2 , 0.65 , -2.294 , 0
55.09 , 10.2 , 0.638 , -1.927 , 0
55.19 , 10.2 , 0.638 , -1.927 , 0
55.3 , 10.2 , 0.638 , -2.097 , 0
55.4 , 10.2 , 0.646 , -2.084 , 0
55.49 , 10.2 , 0.646 , -2.084 , 0
55.59 , 10.2 , 0.646 , -1.848 , 0
55.7 , 10.2 , 0.642 , -2.084 , 0
55.8 , 10.2 , 0.642 , -2.084 , 0
55.89 , 10.2 , 0.642 , -1.992 , 0
55.99 , 10.2 , 0.633 , -1.966 , 0
56.1 , 10.2 , 0.633 , -2.058 , 0
56.2 , 10.2 , 0.633 , -2.058 , 0
56.29 , 10.2 , 0.64 , -1.9 , 0
56.41 , 10.2 , 0.631 , -1.992 , 0
56.5 , 10.2 , 0.631 , -1.992 , 0
56.6 , 10.2 , 0.655 , -2.097 , 0
56.69 , 10.2 , 0.64 , -2.189 , 0
56.8 , 10.2 , 0.642 , -1.966 , 0
56.9 , 10.2 , 0.642 , -1.966 , 0
57.0 , 10.2 , 0.644 , -1.992 , 0
57.09 , 10.2 , 0.627 , -2.097 , 0
57.2 , 10.2 , 0.627 , -2.097 , 0
57.3 , 10.2 , 0.638 , -2.136 , 0
57.4 , 10.2 , 0.621 , -1.966 , 0
57.49 , 10.2 , 0.621 , -1.966 , 0
57.6 , 10.2 , 0.633 , -2.005 , 0
57.7 , 10.2 , 0.625 , -2.018 , 0
57.8 , 10.2 , 0.644 , -2.097 , 0
57.89 , 10.2 , 0.644 , -2.097 , 0
58.0 , 10.2 , 0.642 , -2.045 , 0
58.1 , 10.2 , 0.638 , -2.11 , 0
58.2 , 10.2 , 0.638 , -2.11 , 0
58.29 , 10.2 , 0.631 , -2.149 , 0
58.4 , 10.2 , 0.629 , -1.782 , 0
58.5 , 10.2 , 0.636 , -2.11 , 0
58.6 , 10.2 , 0.636 , -2.11 , 0
58.69 , 10.2 , 0.625 , -2.058 , 0
58.8 , 10.2 , 0.636 , -2.162 , 0
58.9 , 10.2 , 0.636 , -2.162 , 0
59.0 , 10.2 , 0.636 , -2.031 , 0
59.09 , 10.2 , 0.629 , -1.756 , 0
59.2 , 10.2 , 0.629 , -2.018 , 0
59.31 , 10.2 , 0.629 , -2.018 , 0
59.39 , 10.2 , 0.642 , -2.176 , 0
59.49 , 10.2 , 0.642 , -2.176 , 0
59.6 , 10.2 , 0.642 , -2.176 , 0
59.7 , 10.2 , 0.642 , -1.979 , 0
59.79 , 10.2 , 0.638 , -2.084 , 0
