peel_circ_echI
circ
Time , Disp, Load , Pressure, Volume
0.09 , 0.023 , 2.869 , -22.32 , 0
0.17 , 0.06 , 2.869 , -22.32 , 0
0.25 , 0.112 , 2.867 , -22.306 , 0
0.33 , 0.157 , 2.858 , -22.438 , 0
0.44 , 0.213 , 2.858 , -22.438 , 0
0.55 , 0.281 , 2.888 , -22.595 , 0
0.63 , 0.324 , 2.897 , -22.621 , 0
0.73 , 0.38 , 2.897 , -22.621 , 0
0.86 , 0.45 , 2.931 , -22.411 , 0
0.93 , 0.491 , 2.963 , -22.608 , 0
1.03 , 0.546 , 2.971 , -22.293 , 0
1.16 , 0.619 , 2.971 , -22.293 , 0
1.24 , 0.657 , 2.988 , -22.464 , 0
1.33 , 0.713 , 2.995 , -22.398 , 0
1.46 , 0.787 , 2.995 , -22.398 , 0
1.53 , 0.824 , 2.999 , -22.372 , 0
1.64 , 0.88 , 3.012 , -22.529 , 0
1.75 , 0.947 , 3.012 , -22.529 , 0
1.83 , 0.991 , 3.009 , -22.464 , 0
1.93 , 1.046 , 3.022 , -22.424 , 0
2.05 , 1.116 , 3.012 , -22.542 , 0
2.13 , 1.157 , 3.012 , -22.542 , 0
2.23 , 1.213 , 3.014 , -22.542 , 0
2.36 , 1.285 , 3.014 , -22.608 , 0
2.44 , 1.324 , 3.014 , -22.608 , 0
2.53 , 1.379 , 3.012 , -22.503 , 0
2.66 , 1.453 , 3.005 , -22.516 , 0
2.74 , 1.491 , 3.02 , -22.621 , 0
2.84 , 1.546 , 3.02 , -22.621 , 0
2.97 , 1.622 , 3.018 , -22.464 , 0
3.03 , 1.657 , 3.018 , -22.608 , 0
3.14 , 1.713 , 3.018 , -22.608 , 0
3.25 , 1.782 , 3.014 , -22.451 , 0
3.33 , 1.824 , 2.999 , -22.451 , 0
3.43 , 1.88 , 3.003 , -22.647 , 0
3.56 , 1.951 , 3.003 , -22.647 , 0
3.64 , 1.99 , 3.018 , -22.529 , 0
3.73 , 2.046 , 3.016 , -22.477 , 0
3.86 , 2.119 , 3.016 , -22.477 , 0
3.94 , 2.157 , 3.035 , -22.385 , 0
4.04 , 2.213 , 3.024 , -22.306 , 0
4.16 , 2.288 , 3.024 , -22.306 , 0
4.23 , 2.324 , 3.035 , -22.32 , 0
4.34 , 2.38 , 3.02 , -22.49 , 0
4.45 , 2.448 , 3.039 , -22.805 , 0
4.53 , 2.491 , 3.039 , -22.805 , 0
4.63 , 2.546 , 3.029 , -22.634 , 0
4.76 , 2.617 , 3.033 , -22.346 , 0
4.84 , 2.657 , 3.033 , -22.346 , 0
4.93 , 2.713 , 3.02 , -22.647 , 0
5.06 , 2.786 , 3.031 , -22.516 , 0
5.14 , 2.824 , 3.043 , -22.359 , 0
5.24 , 2.88 , 3.043 , -22.359 , 0
5.36 , 2.954 , 3.035 , -22.398 , 0
5.43 , 2.99 , 3.037 , -22.516 , 0
5.54 , 3.046 , 3.037 , -22.516 , 0
5.65 , 3.114 , 3.052 , -22.66 , 0
5.73 , 3.157 , 3.05 , -22.438 , 0
5.83 , 3.213 , 3.05 , -22.438 , 0
5.95 , 3.283 , 3.056 , -22.398 , 0
6.03 , 3.324 , 3.052 , -22.346 , 0
6.13 , 3.379 , 3.073 , -22.687 , 0
6.26 , 3.452 , 3.073 , -22.687 , 0
6.34 , 3.49 , 3.058 , -22.503 , 0
6.43 , 3.546 , 3.056 , -22.372 , 0
6.55 , 3.612 , 3.056 , -22.372 , 0
6.63 , 3.657 , 3.065 , -22.49 , 0
6.74 , 3.713 , 3.058 , -22.464 , 0
6.85 , 3.78 , 3.046 , -22.306 , 0
6.93 , 3.824 , 3.046 , -22.306 , 0
7.04 , 3.88 , 3.058 , -22.529 , 0
7.15 , 3.949 , 3.067 , -22.582 , 0
7.23 , 3.99 , 3.067 , -22.582 , 0
7.33 , 4.046 , 3.06 , -22.438 , 0
7.46 , 4.118 , 3.05 , -22.621 , 0
7.54 , 4.157 , 3.05 , -22.464 , 0
7.63 , 4.213 , 3.05 , -22.464 , 0
7.76 , 4.287 , 3.052 , -22.503 , 0
7.84 , 4.323 , 3.08 , -22.516 , 0
7.94 , 4.379 , 3.08 , -22.516 , 0
8.06 , 4.455 , 3.069 , -22.451 , 0
8.13 , 4.49 , 3.067 , -22.529 , 0
8.24 , 4.546 , 3.067 , -22.529 , 0
8.35 , 4.615 , 3.071 , -22.424 , 0
8.43 , 4.657 , 3.084 , -22.621 , 0
8.53 , 4.713 , 3.065 , -22.293 , 0
8.64 , 4.775 , 3.065 , -22.293 , 0
8.74 , 4.824 , 3.065 , -22.542 , 0
8.83 , 4.879 , 3.067 , -22.503 , 0
8.96 , 4.953 , 3.067 , -22.503 , 0
9.04 , 4.99 , 3.06 , -22.556 , 0
9.14 , 5.046 , 3.035 , -22.438 , 0
9.26 , 5.121 , 3.026 , -22.398 , 0
9.33 , 5.157 , 3.026 , -22.398 , 0
9.44 , 5.213 , 3.005 , -22.542 , 0
9.55 , 5.281 , 3.026 , -22.398 , 0
9.63 , 5.324 , 3.026 , -22.398 , 0
9.73 , 5.379 , 3.029 , -22.516 , 0
9.86 , 5.45 , 3.035 , -22.542 , 0
9.94 , 5.491 , 3.035 , -22.542 , 0
10.03 , 5.546 , 3.043 , -22.556 , 0
10.16 , 5.619 , 3.024 , -22.411 , 0
10.24 , 5.657 , 3.05 , -22.333 , 0
10.34 , 5.712 , 3.05 , -22.333 , 0
10.46 , 5.787 , 3.043 , -22.542 , 0
10.53 , 5.824 , 3.067 , -22.647 , 0
10.64 , 5.879 , 3.067 , -22.647 , 0
10.75 , 5.947 , 3.067 , -22.49 , 0
10.83 , 5.991 , 3.054 , -22.451 , 0
10.94 , 6.046 , 3.056 , -22.359 , 0
11.05 , 6.116 , 3.056 , -22.359 , 0
11.13 , 6.157 , 3.056 , -22.516 , 0
11.23 , 6.213 , 3.067 , -22.306 , 0
11.36 , 6.285 , 3.067 , -22.306 , 0
11.44 , 6.324 , 3.058 , -22.398 , 0
11.53 , 6.379 , 3.067 , -22.595 , 0
11.66 , 6.454 , 3.067 , -22.595 , 0
11.74 , 6.49 , 3.09 , -22.451 , 0
11.84 , 6.546 , 3.092 , -22.503 , 0
11.97 , 6.622 , 3.073 , -22.215 , 0
12.03 , 6.659 , 3.073 , -22.215 , 0
12.14 , 6.713 , 3.084 , -22.569 , 0
12.25 , 6.782 , 3.099 , -22.516 , 0
12.33 , 6.824 , 3.099 , -22.516 , 0
12.43 , 6.88 , 3.097 , -22.398 , 0
12.56 , 6.951 , 3.105 , -22.529 , 0
12.64 , 6.991 , 3.099 , -22.411 , 0
12.73 , 7.046 , 3.099 , -22.411 , 0
12.86 , 7.12 , 3.101 , -22.556 , 0
12.94 , 7.157 , 3.109 , -22.438 , 0
13.04 , 7.212 , 3.109 , -22.438 , 0
13.16 , 7.288 , 3.101 , -22.556 , 0
13.23 , 7.323 , 3.124 , -22.516 , 0
13.34 , 7.379 , 3.109 , -22.293 , 0
13.45 , 7.448 , 3.109 , -22.293 , 0
13.53 , 7.49 , 3.088 , -22.529 , 0
13.63 , 7.546 , 3.094 , -22.451 , 0
13.76 , 7.617 , 3.094 , -22.451 , 0
13.84 , 7.657 , 3.092 , -22.398 , 0
13.93 , 7.713 , 3.109 , -22.346 , 0
14.06 , 7.786 , 3.109 , -22.346 , 0
14.14 , 7.824 , 3.065 , -22.503 , 0
14.24 , 7.88 , 3.092 , -22.569 , 0
14.36 , 7.955 , 3.067 , -22.49 , 0
14.43 , 7.99 , 3.067 , -22.49 , 0
14.54 , 8.046 , 3.069 , -22.359 , 0
14.65 , 8.114 , 3.082 , -22.32 , 0
14.73 , 8.157 , 3.082 , -22.32 , 0
14.83 , 8.213 , 3.073 , -22.359 , 0
14.96 , 8.283 , 3.05 , -22.726 , 0
15.04 , 8.324 , 3.052 , -22.385 , 0
15.13 , 8.379 , 3.052 , -22.385 , 0
15.26 , 8.452 , 3.052 , -22.451 , 0
15.34 , 8.49 , 3.05 , -22.569 , 0
15.43 , 8.546 , 3.05 , -22.569 , 0
15.56 , 8.621 , 3.05 , -22.359 , 0
15.63 , 8.657 , 3.043 , -22.346 , 0
15.74 , 8.712 , 3.043 , -22.346 , 0
15.85 , 8.78 , 3.035 , -22.516 , 0
15.93 , 8.824 , 3.054 , -22.529 , 0
16.04 , 8.88 , 3.046 , -22.621 , 0
16.15 , 8.949 , 3.046 , -22.621 , 0
16.23 , 8.99 , 3.06 , -22.306 , 0
16.33 , 9.046 , 3.056 , -22.254 , 0
16.46 , 9.118 , 3.056 , -22.254 , 0
16.54 , 9.157 , 3.056 , -22.28 , 0
16.63 , 9.213 , 3.054 , -22.477 , 0
16.76 , 9.287 , 3.063 , -22.411 , 0
16.84 , 9.324 , 3.063 , -22.411 , 0
16.94 , 9.379 , 3.056 , -22.595 , 0
17.07 , 9.455 , 3.048 , -22.346 , 0
17.13 , 9.49 , 3.048 , -22.346 , 0
17.24 , 9.546 , 3.065 , -22.411 , 0
17.35 , 9.615 , 3.077 , -22.346 , 0
17.43 , 9.657 , 3.077 , -22.346 , 0
17.53 , 9.713 , 3.048 , -22.438 , 0
17.66 , 9.784 , 3.063 , -22.687 , 0
17.74 , 9.824 , 3.065 , -22.32 , 0
17.83 , 9.879 , 3.065 , -22.32 , 0
17.96 , 9.953 , 3.031 , -22.438 , 0
18.04 , 9.99 , 3.033 , -22.346 , 0
18.14 , 10.046 , 3.033 , -22.346 , 0
18.26 , 10.121 , 3.035 , -22.608 , 0
18.33 , 10.157 , 3.026 , -22.477 , 0
18.44 , 10.212 , 3.014 , -22.634 , 0
18.55 , 10.281 , 3.014 , -22.634 , 0
18.63 , 10.324 , 3.02 , -22.32 , 0
18.73 , 10.379 , 3.003 , -22.372 , 0
18.86 , 10.45 , 3.003 , -22.372 , 0
18.94 , 10.49 , 3.014 , -22.569 , 0
19.03 , 10.546 , 3.005 , -22.673 , 0
19.16 , 10.619 , 3.005 , -22.346 , 0
19.24 , 10.657 , 3.005 , -22.346 , 0
19.34 , 10.713 , 3.024 , -22.451 , 0
19.46 , 10.788 , 3.012 , -22.477 , 0
19.53 , 10.824 , 3.012 , -22.477 , 0
19.64 , 10.879 , 2.992 , -22.385 , 0
19.77 , 10.956 , 3.012 , -22.582 , 0
19.83 , 10.99 , 3.012 , -22.582 , 0
19.93 , 11.046 , 3.007 , -22.411 , 0
20.05 , 11.116 , 2.99 , -22.464 , 0
20.13 , 11.157 , 3.007 , -22.32 , 0
20.23 , 11.212 , 3.007 , -22.32 , 0
20.36 , 11.285 , 3.009 , -22.411 , 0
20.44 , 11.324 , 3.033 , -22.569 , 0
20.53 , 11.379 , 3.033 , -22.569 , 0
20.65 , 11.445 , 3.018 , -22.333 , 0
20.73 , 11.49 , 2.992 , -22.228 , 0
20.84 , 11.546 , 2.986 , -22.136 , 0
20.95 , 11.613 , 2.986 , -22.136 , 0
21.03 , 11.657 , 2.98 , -22.451 , 0
21.14 , 11.713 , 2.999 , -22.647 , 0
21.24 , 11.773 , 2.999 , -22.647 , 0
21.33 , 11.824 , 2.995 , -22.32 , 0
21.43 , 11.879 , 3.012 , -22.503 , 0
21.56 , 11.95 , 3.012 , -22.503 , 0
21.64 , 11.99 , 3.029 , -22.424 , 0
21.73 , 12.046 , 3.024 , -22.398 , 0
21.86 , 12.12 , 3.039 , -22.372 , 0
21.94 , 12.157 , 3.039 , -22.372 , 0
22.04 , 12.212 , 3.048 , -22.516 , 0
22.16 , 12.288 , 3.039 , -22.385 , 0
22.23 , 12.323 , 3.039 , -22.385 , 0
22.34 , 12.379 , 3.037 , -22.411 , 0
22.45 , 12.448 , 3.037 , -22.464 , 0
22.53 , 12.49 , 3.022 , -22.451 , 0
22.63 , 12.546 , 3.022 , -22.451 , 0
22.76 , 12.617 , 3.031 , -22.503 , 0
22.84 , 12.657 , 3.02 , -22.529 , 0
22.93 , 12.713 , 3.02 , -22.529 , 0
23.06 , 12.786 , 3.024 , -22.28 , 0
23.14 , 12.823 , 3.016 , -22.333 , 0
23.24 , 12.879 , 3.016 , -22.333 , 0
23.36 , 12.954 , 3.033 , -22.411 , 0
23.43 , 12.99 , 3.016 , -22.346 , 0
23.54 , 13.046 , 3.031 , -22.451 , 0
23.65 , 13.114 , 3.031 , -22.451 , 0
23.73 , 13.157 , 3.046 , -22.333 , 0
23.83 , 13.212 , 3.054 , -22.372 , 0
23.96 , 13.283 , 3.054 , -22.372 , 0
24.04 , 13.323 , 3.063 , -22.516 , 0
24.13 , 13.379 , 3.037 , -22.411 , 0
24.26 , 13.452 , 3.069 , -22.346 , 0
24.34 , 13.49 , 3.069 , -22.346 , 0
24.43 , 13.546 , 3.033 , -22.333 , 0
24.55 , 13.612 , 3.046 , -22.556 , 0
24.63 , 13.657 , 3.046 , -22.556 , 0
24.74 , 13.713 , 3.052 , -22.424 , 0
24.85 , 13.78 , 3.063 , -22.202 , 0
24.93 , 13.823 , 3.063 , -22.202 , 0
25.04 , 13.879 , 3.056 , -22.542 , 0
25.15 , 13.949 , 3.037 , -22.411 , 0
25.23 , 13.99 , 3.016 , -22.569 , 0
25.33 , 14.046 , 3.016 , -22.569 , 0
25.46 , 14.118 , 3.039 , -22.175 , 0
25.54 , 14.157 , 3.031 , -22.424 , 0
25.63 , 14.213 , 3.031 , -22.424 , 0
25.76 , 14.287 , 3.018 , -22.385 , 0
25.84 , 14.324 , 3.039 , -22.411 , 0
25.94 , 14.379 , 3.041 , -22.385 , 0
26.07 , 14.455 , 3.041 , -22.385 , 0
26.13 , 14.49 , 3.06 , -22.333 , 0
26.24 , 14.546 , 3.033 , -22.569 , 0
26.35 , 14.615 , 3.033 , -22.569 , 0
26.43 , 14.657 , 3.05 , -22.306 , 0
26.53 , 14.712 , 3.037 , -22.346 , 0
26.66 , 14.784 , 3.007 , -22.752 , 0
26.74 , 14.824 , 3.007 , -22.752 , 0
26.83 , 14.879 , 3.018 , -22.372 , 0
26.94 , 14.944 , 3.012 , -22.398 , 0
27.04 , 14.99 , 3.012 , -22.398 , 0
27.14 , 15.046 , 3.014 , -22.451 , 0
27.26 , 15.121 , 2.997 , -22.346 , 0
27.33 , 15.157 , 2.997 , -22.346 , 0
27.44 , 15.213 , 3.016 , -22.451 , 0
27.55 , 15.281 , 3.018 , -22.451 , 0
27.63 , 15.323 , 3.024 , -22.529 , 0
27.73 , 15.379 , 3.024 , -22.529 , 0
27.86 , 15.45 , 3.005 , -22.49 , 0
27.94 , 15.49 , 2.999 , -22.595 , 0
28.03 , 15.546 , 2.999 , -22.595 , 0
28.16 , 15.619 , 3.033 , -22.542 , 0
28.24 , 15.657 , 3.014 , -22.385 , 0
28.34 , 15.712 , 3.039 , -22.424 , 0
28.46 , 15.787 , 3.039 , -22.424 , 0
28.53 , 15.823 , 3.001 , -22.503 , 0
28.64 , 15.879 , 3.018 , -22.477 , 0
28.75 , 15.947 , 3.018 , -22.477 , 0
28.83 , 15.99 , 3.029 , -22.372 , 0
28.93 , 16.046 , 3.018 , -22.556 , 0
29.04 , 16.107 , 3.018 , -22.556 , 0
29.13 , 16.157 , 3.031 , -22.424 , 0
29.23 , 16.212 , 3.016 , -22.359 , 0
29.36 , 16.285 , 3.037 , -22.464 , 0
29.44 , 16.323 , 3.037 , -22.464 , 0
29.53 , 16.379 , 3.037 , -22.569 , 0
29.65 , 16.445 , 3.02 , -22.49 , 0
29.73 , 16.49 , 3.02 , -22.49 , 0
29.84 , 16.546 , 3.039 , -22.542 , 0
29.95 , 16.613 , 3.024 , -22.398 , 0
30.03 , 16.657 , 3.016 , -22.49 , 0
30.13 , 16.712 , 3.016 , -22.49 , 0
30.25 , 16.782 , 3.031 , -22.438 , 0
30.33 , 16.823 , 3.029 , -22.516 , 0
30.43 , 16.879 , 3.029 , -22.516 , 0
30.56 , 16.951 , 3.06 , -22.293 , 0
30.64 , 16.99 , 3.041 , -22.424 , 0
30.73 , 17.046 , 3.041 , -22.424 , 0
30.86 , 17.12 , 3.052 , -22.556 , 0
30.94 , 17.157 , 3.043 , -22.215 , 0
31.04 , 17.213 , 3.056 , -22.333 , 0
31.15 , 17.28 , 3.056 , -22.333 , 0
31.23 , 17.324 , 3.065 , -22.333 , 0
31.34 , 17.379 , 3.052 , -22.359 , 0
31.45 , 17.448 , 3.052 , -22.359 , 0
31.53 , 17.49 , 3.065 , -22.438 , 0
31.63 , 17.546 , 3.06 , -22.398 , 0
31.76 , 17.617 , 3.075 , -22.372 , 0
31.84 , 17.657 , 3.075 , -22.372 , 0
31.93 , 17.713 , 3.073 , -22.293 , 0
32.06 , 17.786 , 3.094 , -22.359 , 0
32.14 , 17.827 , 3.094 , -22.359 , 0
32.24 , 17.879 , 3.08 , -22.556 , 0
32.35 , 17.946 , 3.109 , -22.28 , 0
32.43 , 17.99 , 3.105 , -22.451 , 0
32.54 , 18.045 , 3.105 , -22.451 , 0
32.65 , 18.114 , 3.109 , -22.464 , 0
32.73 , 18.157 , 3.118 , -22.359 , 0
32.83 , 18.212 , 3.118 , -22.359 , 0
32.96 , 18.283 , 3.099 , -22.346 , 0
33.04 , 18.323 , 3.118 , -22.398 , 0
33.13 , 18.379 , 3.118 , -22.398 , 0
33.26 , 18.452 , 3.146 , -22.477 , 0
33.34 , 18.49 , 3.141 , -22.477 , 0
33.44 , 18.546 , 3.133 , -22.503 , 0
33.56 , 18.621 , 3.133 , -22.503 , 0
33.63 , 18.657 , 3.146 , -22.673 , 0
33.74 , 18.712 , 3.163 , -22.542 , 0
33.85 , 18.781 , 3.163 , -22.542 , 0
33.93 , 18.824 , 3.16 , -22.398 , 0
34.03 , 18.879 , 3.182 , -22.411 , 0
34.15 , 18.949 , 3.182 , -22.503 , 0
34.23 , 18.99 , 3.182 , -22.503 , 0
34.33 , 19.046 , 3.169 , -22.293 , 0
34.46 , 19.118 , 3.15 , -22.516 , 0
34.54 , 19.157 , 3.15 , -22.516 , 0
34.63 , 19.213 , 3.156 , -22.359 , 0
34.76 , 19.287 , 3.15 , -22.359 , 0
34.84 , 19.323 , 3.15 , -22.359 , 0
34.94 , 19.379 , 3.15 , -22.398 , 0
35.07 , 19.456 , 3.175 , -22.595 , 0
35.15 , 19.496 , 3.169 , -22.398 , 0
35.24 , 19.545 , 3.169 , -22.398 , 0
35.35 , 19.615 , 3.188 , -22.346 , 0
35.43 , 19.657 , 3.175 , -22.438 , 0
35.53 , 19.713 , 3.175 , -22.438 , 0
35.64 , 19.775 , 3.163 , -22.306 , 0
35.74 , 19.823 , 3.19 , -22.582 , 0
35.83 , 19.879 , 3.186 , -22.398 , 0
35.96 , 19.953 , 3.186 , -22.398 , 0
36.04 , 19.99 , 3.177 , -22.385 , 0
36.14 , 20.046 , 3.16 , -22.451 , 0
36.26 , 20.122 , 3.16 , -22.451 , 0
36.33 , 20.157 , 3.148 , -22.333 , 0
36.44 , 20.213 , 3.154 , -22.49 , 0
36.55 , 20.281 , 3.154 , -22.49 , 0
36.63 , 20.323 , 3.137 , -22.385 , 0
36.73 , 20.379 , 3.16 , -22.542 , 0
36.86 , 20.45 , 3.137 , -22.49 , 0
36.94 , 20.49 , 3.137 , -22.49 , 0
37.03 , 20.546 , 3.152 , -22.359 , 0
37.16 , 20.619 , 3.143 , -22.595 , 0
37.24 , 20.657 , 3.143 , -22.595 , 0
37.34 , 20.712 , 3.158 , -22.477 , 0
37.46 , 20.788 , 3.128 , -22.333 , 0
37.54 , 20.829 , 3.111 , -22.451 , 0
37.64 , 20.879 , 3.111 , -22.451 , 0
37.77 , 20.956 , 3.156 , -22.582 , 0
37.83 , 20.993 , 3.122 , -22.202 , 0
37.93 , 21.046 , 3.122 , -22.202 , 0
38.06 , 21.116 , 3.139 , -22.346 , 0
38.14 , 21.156 , 3.139 , -22.32 , 0
38.23 , 21.212 , 3.15 , -22.634 , 0
38.36 , 21.285 , 3.15 , -22.634 , 0
38.44 , 21.324 , 3.128 , -22.385 , 0
38.53 , 21.379 , 3.111 , -22.346 , 0
38.66 , 21.454 , 3.111 , -22.346 , 0
38.73 , 21.49 , 3.105 , -22.503 , 0
38.84 , 21.546 , 3.099 , -22.346 , 0
38.95 , 21.614 , 3.099 , -22.346 , 0
39.03 , 21.657 , 3.105 , -22.293 , 0
39.14 , 21.712 , 3.105 , -22.516 , 0
39.25 , 21.782 , 3.114 , -22.451 , 0
39.33 , 21.824 , 3.114 , -22.451 , 0
39.43 , 21.879 , 3.107 , -22.293 , 0
39.56 , 21.951 , 3.128 , -22.32 , 0
39.64 , 21.99 , 3.128 , -22.32 , 0
39.73 , 22.045 , 3.126 , -22.385 , 0
39.86 , 22.12 , 3.129 , -22.542 , 0
39.94 , 22.163 , 3.128 , -22.398 , 0
40.04 , 22.212 , 3.128 , -22.398 , 0
40.17 , 22.289 , 3.118 , -22.28 , 0
40.25 , 22.326 , 3.099 , -22.608 , 0
40.34 , 22.379 , 3.099 , -22.608 , 0
40.45 , 22.448 , 3.101 , -22.241 , 0
40.53 , 22.49 , 3.111 , -22.726 , 0
40.63 , 22.546 , 3.111 , -22.726 , 0
40.76 , 22.617 , 3.109 , -22.306 , 0
40.84 , 22.657 , 3.124 , -22.333 , 0
40.93 , 22.712 , 3.107 , -22.411 , 0
41.06 , 22.786 , 3.107 , -22.411 , 0
41.14 , 22.828 , 3.114 , -22.411 , 0
41.24 , 22.879 , 3.109 , -22.372 , 0
41.36 , 22.955 , 3.109 , -22.372 , 0
41.43 , 22.99 , 3.114 , -22.306 , 0
41.54 , 23.046 , 3.114 , -22.293 , 0
41.65 , 23.115 , 3.12 , -22.306 , 0
41.73 , 23.157 , 3.12 , -22.306 , 0
41.83 , 23.212 , 3.133 , -22.516 , 0
41.96 , 23.283 , 3.116 , -22.385 , 0
42.04 , 23.323 , 3.116 , -22.385 , 0
42.13 , 23.379 , 3.114 , -22.372 , 0
42.26 , 23.452 , 3.124 , -22.346 , 0
42.34 , 23.49 , 3.124 , -22.346 , 0
42.44 , 23.545 , 3.107 , -22.32 , 0
42.56 , 23.621 , 3.137 , -22.306 , 0
42.64 , 23.658 , 3.116 , -22.424 , 0
42.74 , 23.712 , 3.116 , -22.424 , 0
42.87 , 23.789 , 3.118 , -22.529 , 0
42.95 , 23.828 , 3.111 , -22.346 , 0
43.03 , 23.879 , 3.111 , -22.346 , 0
43.17 , 23.958 , 3.114 , -22.333 , 0
43.25 , 23.996 , 3.097 , -22.451 , 0
43.33 , 24.047 , 3.109 , -22.516 , 0
43.43 , 24.101 , 3.109 , -22.516 , 0
43.54 , 24.157 , 3.103 , -22.464 , 0
43.65 , 24.225 , 3.077 , -22.503 , 0
43.73 , 24.267 , 3.077 , -22.503 , 0
43.83 , 24.323 , 3.071 , -22.346 , 0
43.95 , 24.393 , 3.063 , -22.66 , 0
44.03 , 24.437 , 3.056 , -22.411 , 0
44.13 , 24.49 , 3.056 , -22.411 , 0
44.26 , 24.562 , 3.071 , -22.293 , 0
44.34 , 24.601 , 3.058 , -22.477 , 0
44.43 , 24.657 , 3.058 , -22.477 , 0
44.56 , 24.731 , 3.067 , -22.713 , 0
44.64 , 24.773 , 3.058 , -22.687 , 0
44.74 , 24.823 , 3.058 , -22.687 , 0
44.87 , 24.9 , 3.063 , -22.634 , 0
44.93 , 24.935 , 3.069 , -22.739 , 0
45.04 , 24.99 , 3.065 , -22.621 , 0
45.15 , 25.059 , 3.065 , -22.621 , 0
45.23 , 25.101 , 3.054 , -22.608 , 0
45.33 , 25.156 , 3.05 , -22.595 , 0
45.46 , 25.228 , 3.05 , -22.595 , 0
45.54 , 25.268 , 3.035 , -22.582 , 0
45.63 , 25.323 , 3.056 , -22.818 , 0
45.74 , 25.388 , 3.041 , -22.582 , 0
45.84 , 25.434 , 3.041 , -22.582 , 0
45.94 , 25.49 , 3.041 , -22.293 , 0
46.06 , 25.566 , 3.065 , -22.582 , 0
46.13 , 25.602 , 3.065 , -22.582 , 0
46.24 , 25.657 , 3.043 , -22.464 , 0
46.35 , 25.726 , 3.056 , -22.634 , 0
46.43 , 25.768 , 3.056 , -22.634 , 0
46.53 , 25.824 , 3.052 , -22.542 , 0
46.66 , 25.894 , 3.056 , -22.477 , 0
46.74 , 25.934 , 3.033 , -22.673 , 0
46.83 , 25.99 , 3.033 , -22.673 , 0
46.96 , 26.063 , 3.043 , -22.529 , 0
47.04 , 26.101 , 3.054 , -22.621 , 0
47.14 , 26.157 , 3.054 , -22.621 , 0
47.26 , 26.232 , 3.06 , -22.49 , 0
47.33 , 26.268 , 3.048 , -22.582 , 0
47.44 , 26.323 , 3.041 , -22.909 , 0
47.55 , 26.391 , 3.041 , -22.909 , 0
47.63 , 26.434 , 3.031 , -22.647 , 0
47.73 , 26.49 , 3.014 , -22.713 , 0
47.85 , 26.56 , 3.014 , -22.713 , 0
47.93 , 26.601 , 3.014 , -22.752 , 0
48.03 , 26.657 , 3.012 , -22.647 , 0
48.16 , 26.729 , 3.012 , -22.647 , 0
48.24 , 26.768 , 3.016 , -22.451 , 0
48.33 , 26.823 , 3.031 , -22.49 , 0
48.46 , 26.898 , 3.02 , -22.32 , 0
48.54 , 26.934 , 3.02 , -22.32 , 0
48.64 , 26.99 , 3.018 , -22.516 , 0
48.77 , 27.067 , 3.035 , -22.49 , 0
48.85 , 27.104 , 3.035 , -22.49 , 0
48.94 , 27.156 , 3.024 , -22.516 , 0
49.07 , 27.235 , 3.039 , -22.385 , 0
49.15 , 27.273 , 3.05 , -22.372 , 0
49.23 , 27.324 , 3.05 , -22.372 , 0
49.34 , 27.379 , 3.018 , -22.32 , 0
49.44 , 27.434 , 3.016 , -22.529 , 0
49.55 , 27.502 , 3.016 , -22.529 , 0
49.63 , 27.546 , 3.031 , -22.424 , 0
49.74 , 27.601 , 3.018 , -22.359 , 0
49.85 , 27.67 , 3.058 , -22.411 , 0
49.93 , 27.712 , 3.058 , -22.411 , 0
50.03 , 27.768 , 3.037 , -22.582 , 0
50.16 , 27.839 , 3.041 , -22.608 , 0
50.24 , 27.879 , 3.041 , -22.608 , 0
50.33 , 27.935 , 3.052 , -22.424 , 0
50.46 , 28.008 , 3.05 , -22.477 , 0
50.54 , 28.045 , 3.05 , -22.477 , 0
50.64 , 28.101 , 3.046 , -22.516 , 0
50.76 , 28.177 , 3.035 , -22.49 , 0
50.84 , 28.215 , 3.048 , -22.634 , 0
50.94 , 28.268 , 3.048 , -22.634 , 0
51.07 , 28.345 , 3.067 , -22.385 , 0
51.15 , 28.384 , 3.058 , -22.359 , 0
51.23 , 28.434 , 3.058 , -22.359 , 0
51.37 , 28.514 , 3.067 , -22.346 , 0
51.45 , 28.558 , 3.05 , -22.136 , 0
51.53 , 28.603 , 3.033 , -22.451 , 0
51.63 , 28.657 , 3.033 , -22.451 , 0
51.74 , 28.712 , 3.035 , -22.372 , 0
51.85 , 28.781 , 3.05 , -22.542 , 0
51.93 , 28.823 , 3.05 , -22.542 , 0
52.03 , 28.879 , 3.035 , -22.857 , 0
52.16 , 28.949 , 3.039 , -22.451 , 0
52.23 , 28.994 , 3.039 , -22.451 , 0
52.33 , 29.046 , 3.031 , -22.346 , 0
52.46 , 29.118 , 3.052 , -22.398 , 0
52.54 , 29.156 , 3.039 , -22.424 , 0
52.63 , 29.212 , 3.039 , -22.424 , 0
52.76 , 29.287 , 3.048 , -22.516 , 0
52.84 , 29.326 , 3.065 , -22.556 , 0
52.94 , 29.379 , 3.065 , -22.556 , 0
53.07 , 29.456 , 3.052 , -22.516 , 0
53.15 , 29.493 , 3.063 , -22.503 , 0
53.24 , 29.546 , 3.058 , -22.464 , 0
53.37 , 29.624 , 3.058 , -22.464 , 0
53.45 , 29.662 , 3.071 , -22.516 , 0
53.53 , 29.713 , 3.052 , -22.503 , 0
53.63 , 29.767 , 3.052 , -22.503 , 0
53.74 , 29.823 , 3.048 , -22.346 , 0
53.85 , 29.891 , 3.031 , -22.424 , 0
53.93 , 29.934 , 3.031 , -22.424 , 0
54.04 , 29.99 , 3.043 , -22.542 , 0
54.15 , 30.059 , 3.052 , -22.438 , 0
54.23 , 30.101 , 3.048 , -22.424 , 0
54.33 , 30.157 , 3.048 , -22.424 , 0
54.46 , 30.228 , 3.046 , -22.451 , 0
54.54 , 30.268 , 3.035 , -22.438 , 0
54.63 , 30.323 , 3.035 , -22.438 , 0
54.76 , 30.397 , 3.046 , -22.438 , 0
54.84 , 30.441 , 3.033 , -22.49 , 0
54.94 , 30.49 , 3.046 , -22.385 , 0
55.06 , 30.566 , 3.046 , -22.385 , 0
