tra_circ_echII
circ
Time , Disp, Load , Pressure, Volume
0.09 , 0.023 , 3.56 , -23.591 , 0
0.18 , 0.071 , 3.562 , -23.499 , 0
0.28 , 0.127 , 3.562 , -23.499 , 0
0.39 , 0.193 , 3.56 , -23.421 , 0
0.47 , 0.238 , 3.579 , -23.538 , 0
0.58 , 0.293 , 3.579 , -23.538 , 0
0.69 , 0.361 , 3.654 , -23.525 , 0
0.77 , 0.404 , 3.703 , -23.696 , 0
0.87 , 0.46 , 3.769 , -23.696 , 0
1.0 , 0.53 , 3.769 , -23.696 , 0
1.08 , 0.571 , 3.807 , -23.696 , 0
1.17 , 0.627 , 3.9 , -23.617 , 0
1.3 , 0.699 , 3.9 , -23.617 , 0
1.38 , 0.738 , 3.975 , -23.604 , 0
1.48 , 0.793 , 4.022 , -23.656 , 0
1.61 , 0.868 , 4.022 , -23.656 , 0
1.69 , 0.904 , 4.128 , -23.67 , 0
1.78 , 0.96 , 4.196 , -23.63 , 0
1.91 , 1.036 , 4.249 , -23.683 , 0
1.97 , 1.072 , 4.249 , -23.683 , 0
2.09 , 1.127 , 4.353 , -23.565 , 0
2.2 , 1.196 , 4.462 , -23.538 , 0
2.28 , 1.238 , 4.462 , -23.538 , 0
2.37 , 1.294 , 4.57 , -23.656 , 0
2.5 , 1.365 , 4.677 , -23.787 , 0
2.58 , 1.405 , 4.785 , -23.722 , 0
2.68 , 1.46 , 4.785 , -23.722 , 0
2.8 , 1.534 , 4.902 , -23.552 , 0
2.88 , 1.571 , 5.036 , -23.67 , 0
2.98 , 1.627 , 5.036 , -23.67 , 0
3.11 , 1.702 , 5.149 , -23.735 , 0
3.17 , 1.738 , 5.257 , -23.63 , 0
3.28 , 1.793 , 5.257 , -23.63 , 0
3.4 , 1.862 , 5.404 , -23.696 , 0
3.48 , 1.904 , 5.542 , -23.421 , 0
3.57 , 1.96 , 5.648 , -23.709 , 0
3.7 , 2.031 , 5.648 , -23.709 , 0
3.78 , 2.071 , 5.755 , -23.735 , 0
3.88 , 2.127 , 5.899 , -23.761 , 0
4.0 , 2.2 , 5.899 , -23.761 , 0
4.08 , 2.238 , 5.98 , -23.604 , 0
4.18 , 2.294 , 6.097 , -23.578 , 0
4.29 , 2.36 , 6.152 , -23.578 , 0
4.37 , 2.404 , 6.152 , -23.578 , 0
4.48 , 2.46 , 6.184 , -23.735 , 0
4.6 , 2.528 , 6.327 , -23.683 , 0
4.68 , 2.571 , 6.327 , -23.683 , 0
4.77 , 2.627 , 6.463 , -23.67 , 0
4.9 , 2.697 , 6.603 , -23.552 , 0
4.98 , 2.738 , 6.756 , -23.604 , 0
5.07 , 2.793 , 6.756 , -23.604 , 0
5.2 , 2.866 , 6.882 , -23.591 , 0
5.28 , 2.904 , 7.024 , -23.683 , 0
5.38 , 2.96 , 7.024 , -23.683 , 0
5.51 , 3.035 , 7.126 , -23.512 , 0
5.57 , 3.071 , 7.216 , -23.591 , 0
5.68 , 3.127 , 7.216 , -23.591 , 0
5.79 , 3.194 , 7.386 , -23.735 , 0
5.87 , 3.238 , 7.579 , -23.683 , 0
5.99 , 3.294 , 7.722 , -23.538 , 0
6.1 , 3.363 , 7.722 , -23.538 , 0
6.18 , 3.404 , 7.881 , -23.748 , 0
6.27 , 3.46 , 8.049 , -23.67 , 0
6.4 , 3.532 , 8.049 , -23.67 , 0
6.48 , 3.571 , 8.194 , -23.643 , 0
6.58 , 3.627 , 8.356 , -23.84 , 0
6.71 , 3.701 , 8.543 , -23.801 , 0
6.79 , 3.738 , 8.543 , -23.801 , 0
6.88 , 3.793 , 8.702 , -23.578 , 0
7.01 , 3.869 , 8.866 , -23.709 , 0
7.07 , 3.905 , 8.866 , -23.709 , 0
7.19 , 3.96 , 9.079 , -23.866 , 0
7.3 , 4.029 , 9.23 , -23.565 , 0
7.38 , 4.071 , 9.23 , -23.565 , 0
7.47 , 4.127 , 9.391 , -23.722 , 0
7.6 , 4.198 , 9.593 , -23.643 , 0
7.68 , 4.238 , 9.689 , -23.748 , 0
7.78 , 4.293 , 9.689 , -23.748 , 0
7.9 , 4.367 , 9.731 , -23.565 , 0
7.98 , 4.405 , 9.85 , -23.67 , 0
8.08 , 4.46 , 9.85 , -23.67 , 0
8.21 , 4.535 , 9.974 , -23.814 , 0
8.27 , 4.572 , 10.148 , -23.67 , 0
8.38 , 4.627 , 10.431 , -23.696 , 0
8.5 , 4.695 , 10.431 , -23.696 , 0
8.58 , 4.738 , 10.663 , -23.578 , 0
8.67 , 4.794 , 10.878 , -23.945 , 0
8.8 , 4.864 , 10.878 , -23.945 , 0
8.88 , 4.905 , 11.129 , -23.722 , 0
8.98 , 4.96 , 11.337 , -23.774 , 0
9.1 , 5.033 , 11.337 , -23.774 , 0
9.18 , 5.071 , 11.535 , -23.552 , 0
9.28 , 5.127 , 11.786 , -23.774 , 0
9.41 , 5.202 , 12.017 , -23.814 , 0
9.47 , 5.238 , 12.017 , -23.814 , 0
9.58 , 5.293 , 12.2 , -23.552 , 0
9.69 , 5.361 , 12.434 , -23.578 , 0
9.77 , 5.405 , 12.434 , -23.578 , 0
9.89 , 5.46 , 12.66 , -23.552 , 0
10.0 , 5.53 , 12.868 , -23.578 , 0
10.08 , 5.571 , 13.089 , -23.696 , 0
10.17 , 5.627 , 13.089 , -23.696 , 0
10.3 , 5.699 , 13.368 , -23.709 , 0
10.38 , 5.738 , 13.58 , -23.565 , 0
10.48 , 5.793 , 13.58 , -23.565 , 0
10.61 , 5.867 , 13.827 , -23.67 , 0
10.69 , 5.905 , 14.084 , -23.578 , 0
10.78 , 5.96 , 14.323 , -23.552 , 0
10.91 , 6.036 , 14.323 , -23.552 , 0
10.97 , 6.071 , 14.559 , -23.604 , 0
11.09 , 6.127 , 14.854 , -23.656 , 0
11.2 , 6.196 , 14.854 , -23.656 , 0
11.28 , 6.238 , 15.097 , -23.591 , 0
11.37 , 6.293 , 15.333 , -23.761 , 0
11.5 , 6.365 , 15.333 , -23.761 , 0
11.58 , 6.404 , 15.637 , -23.604 , 0
11.68 , 6.46 , 15.905 , -23.421 , 0
11.79 , 6.525 , 16.141 , -23.591 , 0
11.88 , 6.571 , 16.141 , -23.591 , 0
11.98 , 6.627 , 16.487 , -23.696 , 0
12.11 , 6.702 , 16.749 , -23.683 , 0
12.17 , 6.738 , 16.749 , -23.683 , 0
12.28 , 6.793 , 17.017 , -23.578 , 0
12.4 , 6.862 , 17.332 , -23.46 , 0
12.48 , 6.905 , 17.597 , -23.434 , 0
12.57 , 6.96 , 17.597 , -23.434 , 0
12.7 , 7.0 , 17.855 , -23.604 , 0
12.78 , 7.0 , 18.197 , -23.538 , 0
12.91 , 6.98 , 18.197 , -23.538 , 0
12.97 , 6.944 , 18.45 , -23.46 , 0
13.08 , 6.888 , 18.406 , -23.512 , 0
13.2 , 6.82 , 18.406 , -23.512 , 0
13.28 , 6.777 , 17.787 , -23.512 , 0
13.37 , 6.721 , 16.753 , -23.67 , 0
13.5 , 6.651 , 15.741 , -23.617 , 0
13.58 , 6.61 , 15.741 , -23.617 , 0
13.68 , 6.554 , 14.807 , -23.617 , 0
13.8 , 6.482 , 13.842 , -23.421 , 0
13.88 , 6.443 , 13.842 , -23.421 , 0
13.98 , 6.388 , 13.062 , -23.565 , 0
14.11 , 6.313 , 12.243 , -23.394 , 0
14.19 , 6.277 , 11.484 , -23.434 , 0
14.28 , 6.221 , 11.484 , -23.434 , 0
14.41 , 6.145 , 10.895 , -23.381 , 0
14.47 , 6.11 , 10.242 , -23.538 , 0
14.57 , 6.055 , 10.242 , -23.538 , 0
14.7 , 5.985 , 9.71 , -23.512 , 0
14.78 , 5.944 , 9.247 , -23.499 , 0
14.87 , 5.888 , 9.247 , -23.499 , 0
15.0 , 5.816 , 8.777 , -23.381 , 0
15.08 , 5.777 , 8.387 , -23.722 , 0
15.18 , 5.721 , 8.028 , -23.696 , 0
15.29 , 5.656 , 8.028 , -23.696 , 0
15.39 , 5.61 , 7.673 , -23.46 , 0
15.48 , 5.555 , 7.379 , -23.512 , 0
15.61 , 5.479 , 7.379 , -23.512 , 0
15.67 , 5.443 , 7.101 , -23.735 , 0
15.79 , 5.388 , 6.822 , -23.407 , 0
15.9 , 5.319 , 6.593 , -23.421 , 0
15.98 , 5.277 , 6.593 , -23.421 , 0
16.07 , 5.221 , 6.386 , -23.407 , 0
16.2 , 5.15 , 6.165 , -23.368 , 0
16.28 , 5.11 , 6.165 , -23.368 , 0
16.38 , 5.055 , 5.987 , -23.342 , 0
16.5 , 4.981 , 5.821 , -23.355 , 0
16.58 , 4.943 , 5.821 , -23.355 , 0
16.68 , 4.888 , 5.64 , -23.421 , 0
16.81 , 4.812 , 5.525 , -23.499 , 0
16.87 , 4.777 , 5.398 , -23.394 , 0
16.98 , 4.721 , 5.398 , -23.394 , 0
17.1 , 4.652 , 5.257 , -23.342 , 0
17.18 , 4.61 , 5.176 , -23.355 , 0
17.27 , 4.555 , 5.176 , -23.355 , 0
17.4 , 4.484 , 5.066 , -23.434 , 0
17.48 , 4.443 , 4.976 , -23.421 , 0
17.58 , 4.388 , 4.915 , -23.63 , 0
17.7 , 4.315 , 4.915 , -23.63 , 0
17.78 , 4.277 , 4.823 , -23.565 , 0
17.88 , 4.221 , 4.766 , -23.355 , 0
18.01 , 4.146 , 4.766 , -23.355 , 0
18.07 , 4.111 , 4.689 , -23.289 , 0
18.18 , 4.054 , 4.619 , -23.342 , 0
18.3 , 3.986 , 4.553 , -23.434 , 0
18.38 , 3.944 , 4.553 , -23.434 , 0
18.47 , 3.888 , 4.528 , -23.316 , 0
18.6 , 3.818 , 4.485 , -23.368 , 0
18.68 , 3.777 , 4.485 , -23.368 , 0
18.77 , 3.721 , 4.402 , -23.525 , 0
18.9 , 3.649 , 4.366 , -23.407 , 0
18.98 , 3.61 , 4.366 , -23.407 , 0
19.08 , 3.554 , 4.336 , -23.434 , 0
19.21 , 3.48 , 4.285 , -23.394 , 0
19.27 , 3.444 , 4.239 , -23.368 , 0
19.38 , 3.388 , 4.239 , -23.368 , 0
19.49 , 3.32 , 4.207 , -23.316 , 0
19.57 , 3.277 , 4.171 , -23.329 , 0
19.69 , 3.221 , 4.171 , -23.329 , 0
19.8 , 3.152 , 4.139 , -23.263 , 0
19.88 , 3.11 , 4.117 , -23.447 , 0
19.97 , 3.055 , 4.075 , -23.473 , 0
20.09 , 2.992 , 4.075 , -23.473 , 0
20.18 , 2.944 , 4.034 , -23.342 , 0
20.28 , 2.888 , 4.022 , -23.499 , 0
20.41 , 2.814 , 4.022 , -23.499 , 0
20.49 , 2.777 , 3.977 , -23.525 , 0
20.58 , 2.721 , 3.941 , -23.565 , 0
20.71 , 2.645 , 3.941 , -23.565 , 0
20.77 , 2.609 , 3.924 , -23.591 , 0
20.89 , 2.555 , 3.894 , -23.342 , 0
21.0 , 2.486 , 3.856 , -23.473 , 0
21.08 , 2.443 , 3.856 , -23.473 , 0
21.17 , 2.388 , 3.811 , -23.578 , 0
21.3 , 2.317 , 3.807 , -23.276 , 0
21.38 , 2.277 , 3.807 , -23.276 , 0
21.48 , 2.222 , 3.781 , -23.381 , 0
21.6 , 2.148 , 3.752 , -23.394 , 0
21.68 , 2.11 , 3.711 , -23.381 , 0
21.78 , 2.055 , 3.711 , -23.381 , 0
21.91 , 1.98 , 3.701 , -23.25 , 0
21.97 , 1.944 , 3.681 , -23.289 , 0
22.08 , 1.888 , 3.681 , -23.289 , 0
22.21 , 1.811 , 3.647 , -23.381 , 0
22.29 , 1.772 , 3.62 , -23.237 , 0
22.37 , 1.721 , 3.62 , -23.237 , 0
22.52 , 1.642 , 3.598 , -23.604 , 0
22.6 , 1.602 , 3.573 , -23.617 , 0
22.68 , 1.553 , 3.556 , -23.473 , 0
22.77 , 1.499 , 3.556 , -23.473 , 0
22.88 , 1.443 , 3.543 , -23.525 , 0
23.0 , 1.376 , 3.533 , -23.525 , 0
23.08 , 1.333 , 3.533 , -23.525 , 0
23.17 , 1.277 , 3.477 , -23.473 , 0
23.3 , 1.207 , 3.486 , -23.421 , 0
23.38 , 1.166 , 3.456 , -23.368 , 0
23.47 , 1.11 , 3.456 , -23.368 , 0
23.6 , 1.038 , 3.439 , -23.578 , 0
23.68 , 0.999 , 3.405 , -23.368 , 0
23.78 , 0.944 , 3.405 , -23.368 , 0
23.91 , 0.869 , 3.384 , -23.578 , 0
23.97 , 0.833 , 3.377 , -23.316 , 0
24.08 , 0.777 , 3.377 , -23.316 , 0
24.19 , 0.709 , 3.365 , -23.67 , 0
24.27 , 0.666 , 3.343 , -23.421 , 0
24.37 , 0.61 , 3.326 , -23.643 , 0
24.5 , 0.541 , 3.326 , -23.643 , 0
24.58 , 0.499 , 3.305 , -23.499 , 0
24.67 , 0.444 , 3.282 , -23.329 , 0
24.8 , 0.372 , 3.282 , -23.329 , 0
24.88 , 0.333 , 3.273 , -23.735 , 0
24.98 , 0.277 , 3.243 , -23.578 , 0
25.11 , 0.203 , 3.243 , -23.683 , 0
25.19 , 0.166 , 3.243 , -23.683 , 0
25.28 , 0.11 , 3.216 , -23.499 , 0
25.39 , 0.043 , 3.199 , -23.552 , 0
25.47 , 0.002 , 3.199 , -23.552 , 0
25.6 , 0.02 , 3.192 , -23.63 , 0
25.68 , 0.061 , 3.184 , -23.67 , 0
25.78 , 0.116 , 3.163 , -23.552 , 0
25.89 , 0.18 , 3.163 , -23.552 , 0
25.98 , 0.227 , 3.167 , -23.329 , 0
26.08 , 0.283 , 3.177 , -23.368 , 0
26.21 , 0.358 , 3.177 , -23.368 , 0
26.27 , 0.394 , 3.186 , -23.499 , 0
26.38 , 0.449 , 3.205 , -23.394 , 0
26.5 , 0.518 , 3.205 , -23.394 , 0
26.58 , 0.56 , 3.22 , -23.447 , 0
26.67 , 0.616 , 3.245 , -23.46 , 0
26.8 , 0.687 , 3.25 , -23.525 , 0
26.88 , 0.727 , 3.25 , -23.525 , 0
26.98 , 0.783 , 3.273 , -23.46 , 0
27.1 , 0.855 , 3.284 , -23.473 , 0
27.18 , 0.894 , 3.284 , -23.473 , 0
27.28 , 0.95 , 3.297 , -23.552 , 0
27.39 , 1.015 , 3.318 , -23.604 , 0
27.47 , 1.06 , 3.358 , -23.421 , 0
27.58 , 1.116 , 3.358 , -23.421 , 0
27.7 , 1.184 , 3.373 , -23.447 , 0
27.78 , 1.227 , 3.403 , -23.407 , 0
27.87 , 1.283 , 3.403 , -23.407 , 0
28.0 , 1.353 , 3.416 , -23.46 , 0
28.08 , 1.394 , 3.441 , -23.552 , 0
28.17 , 1.449 , 3.441 , -23.552 , 0
28.3 , 1.522 , 3.433 , -23.552 , 0
28.38 , 1.561 , 3.467 , -23.421 , 0
28.48 , 1.616 , 3.49 , -23.525 , 0
28.61 , 1.69 , 3.49 , -23.525 , 0
28.67 , 1.727 , 3.509 , -23.447 , 0
28.78 , 1.783 , 3.537 , -23.394 , 0
28.89 , 1.85 , 3.537 , -23.394 , 0
28.97 , 1.894 , 3.569 , -23.473 , 0
29.09 , 1.95 , 3.59 , -23.421 , 0
29.2 , 2.019 , 3.622 , -23.46 , 0
29.29 , 2.072 , 3.622 , -23.46 , 0
29.37 , 2.116 , 3.652 , -23.46 , 0
29.49 , 2.172 , 3.675 , -23.394 , 0
29.58 , 2.227 , 3.675 , -23.394 , 0
29.71 , 2.303 , 3.698 , -23.368 , 0
29.79 , 2.34 , 3.739 , -23.486 , 0
29.89 , 2.394 , 3.739 , -23.486 , 0
30.01 , 2.472 , 3.758 , -23.525 , 0
30.09 , 2.511 , 3.794 , -23.394 , 0
30.17 , 2.561 , 3.813 , -23.355 , 0
30.28 , 2.616 , 3.813 , -23.355 , 0
30.38 , 2.672 , 3.854 , -23.447 , 0
30.49 , 2.738 , 3.881 , -23.46 , 0
30.57 , 2.782 , 3.881 , -23.46 , 0
30.68 , 2.838 , 3.903 , -23.473 , 0
30.8 , 2.907 , 3.947 , -23.381 , 0
30.88 , 2.949 , 3.99 , -23.407 , 0
30.97 , 3.005 , 3.99 , -23.407 , 0
31.1 , 3.076 , 4.013 , -23.552 , 0
31.18 , 3.116 , 4.064 , -23.368 , 0
31.28 , 3.171 , 4.064 , -23.368 , 0
31.39 , 3.236 , 4.083 , -23.565 , 0
31.48 , 3.282 , 4.126 , -23.512 , 0
31.58 , 3.338 , 4.166 , -23.368 , 0
31.69 , 3.405 , 4.166 , -23.368 , 0
31.77 , 3.449 , 4.219 , -23.381 , 0
31.88 , 3.505 , 4.26 , -23.394 , 0
32.0 , 3.573 , 4.26 , -23.394 , 0
32.08 , 3.616 , 4.294 , -23.407 , 0
32.17 , 3.671 , 4.336 , -23.381 , 0
32.3 , 3.742 , 4.336 , -23.381 , 0
32.38 , 3.783 , 4.379 , -23.276 , 0
32.47 , 3.838 , 4.419 , -23.303 , 0
32.6 , 3.911 , 4.494 , -23.538 , 0
32.68 , 3.949 , 4.494 , -23.538 , 0
32.78 , 4.005 , 4.543 , -23.46 , 0
32.91 , 4.079 , 4.585 , -23.473 , 0
32.99 , 4.116 , 4.585 , -23.473 , 0
33.08 , 4.171 , 4.664 , -23.381 , 0
33.21 , 4.248 , 4.732 , -23.591 , 0
33.29 , 4.291 , 4.815 , -23.46 , 0
33.39 , 4.338 , 4.815 , -23.46 , 0
33.51 , 4.417 , 4.898 , -23.421 , 0
33.58 , 4.449 , 4.955 , -23.552 , 0
33.67 , 4.505 , 4.955 , -23.552 , 0
33.8 , 4.577 , 5.055 , -23.46 , 0
33.88 , 4.616 , 5.159 , -23.421 , 0
33.98 , 4.672 , 5.159 , -23.421 , 0
34.11 , 4.745 , 5.251 , -23.355 , 0
34.19 , 4.784 , 5.359 , -23.486 , 0
34.28 , 4.838 , 5.504 , -23.591 , 0
34.41 , 4.914 , 5.504 , -23.591 , 0
34.47 , 4.949 , 5.623 , -23.329 , 0
34.59 , 5.005 , 5.753 , -23.486 , 0
34.7 , 5.074 , 5.753 , -23.486 , 0
34.78 , 5.116 , 5.914 , -23.46 , 0
34.87 , 5.171 , 6.087 , -23.394 , 0
35.0 , 5.243 , 6.252 , -23.329 , 0
35.08 , 5.282 , 6.252 , -23.329 , 0
35.18 , 5.338 , 6.467 , -23.407 , 0
35.3 , 5.411 , 6.703 , -23.421 , 0
35.38 , 5.449 , 6.703 , -23.421 , 0
35.48 , 5.505 , 6.909 , -23.342 , 0
35.61 , 5.58 , 7.158 , -23.512 , 0
35.67 , 5.616 , 7.158 , -23.512 , 0
35.78 , 5.671 , 7.443 , -23.643 , 0
35.9 , 5.74 , 7.709 , -23.342 , 0
35.98 , 5.782 , 8.047 , -23.394 , 0
36.07 , 5.838 , 8.047 , -23.394 , 0
36.2 , 5.909 , 8.375 , -23.381 , 0
36.28 , 5.949 , 8.698 , -23.368 , 0
36.38 , 6.005 , 8.698 , -23.368 , 0
36.5 , 6.078 , 9.087 , -23.355 , 0
36.58 , 6.116 , 9.472 , -23.46 , 0
36.68 , 6.172 , 9.893 , -23.342 , 0
36.81 , 6.246 , 9.893 , -23.342 , 0
36.87 , 6.283 , 10.354 , -23.303 , 0
36.98 , 6.338 , 10.761 , -23.394 , 0
37.09 , 6.406 , 10.761 , -23.394 , 0
37.17 , 6.449 , 11.241 , -23.329 , 0
37.29 , 6.505 , 11.762 , -23.224 , 0
37.38 , 6.566 , 12.222 , -23.407 , 0
37.48 , 6.616 , 12.222 , -23.407 , 0
37.57 , 6.671 , 12.753 , -23.512 , 0
37.7 , 6.744 , 13.323 , -23.486 , 0
37.78 , 6.783 , 13.323 , -23.486 , 0
37.88 , 6.838 , 13.806 , -23.276 , 0
38.01 , 6.912 , 14.359 , -23.407 , 0
38.09 , 6.949 , 14.359 , -23.407 , 0
38.18 , 6.999 , 14.99 , -23.303 , 0
38.31 , 7.0 , 15.496 , -23.276 , 0
38.41 , 6.979 , 16.041 , -23.25 , 0
38.49 , 6.941 , 16.041 , -23.25 , 0
38.58 , 6.886 , 16.453 , -23.368 , 0
38.71 , 6.81 , 16.239 , -23.421 , 0
38.79 , 6.771 , 16.239 , -23.421 , 0
38.89 , 6.719 , 15.507 , -23.381 , 0
39.01 , 6.641 , 14.499 , -23.303 , 0
39.09 , 6.6 , 13.668 , -23.316 , 0
39.17 , 6.552 , 13.668 , -23.316 , 0
39.29 , 6.497 , 12.832 , -23.473 , 0
39.38 , 6.441 , 11.879 , -23.512 , 0
39.51 , 6.365 , 11.879 , -23.512 , 0
39.57 , 6.33 , 11.201 , -23.434 , 0
39.68 , 6.274 , 10.582 , -23.552 , 0
39.8 , 6.205 , 10.582 , -23.552 , 0
39.88 , 6.163 , 9.874 , -23.355 , 0
39.97 , 6.108 , 9.381 , -23.525 , 0
40.1 , 6.037 , 8.945 , -23.407 , 0
40.18 , 5.997 , 8.945 , -23.407 , 0
40.28 , 5.941 , 8.43 , -23.171 , 0
40.4 , 5.868 , 8.047 , -23.381 , 0
40.48 , 5.83 , 8.047 , -23.381 , 0
40.58 , 5.774 , 7.752 , -23.355 , 0
40.71 , 5.699 , 7.386 , -23.355 , 0
40.77 , 5.663 , 7.092 , -23.407 , 0
40.88 , 5.608 , 7.092 , -23.407 , 0
41.0 , 5.539 , 6.852 , -23.329 , 0
41.08 , 5.497 , 6.608 , -23.394 , 0
41.17 , 5.441 , 6.608 , -23.394 , 0
41.3 , 5.371 , 6.386 , -23.276 , 0
41.38 , 5.33 , 6.199 , -23.276 , 0
41.48 , 5.274 , 5.993 , -23.303 , 0
41.6 , 5.202 , 5.993 , -23.303 , 0
41.68 , 5.163 , 5.823 , -23.263 , 0
41.78 , 5.108 , 5.676 , -23.565 , 0
41.91 , 5.033 , 5.676 , -23.565 , 0
41.99 , 4.995 , 5.525 , -23.263 , 0
42.08 , 4.941 , 5.391 , -23.276 , 0
42.21 , 4.864 , 5.391 , -23.276 , 0
42.27 , 4.83 , 5.276 , -23.604 , 0
42.37 , 4.775 , 5.181 , -23.224 , 0
42.5 , 4.705 , 5.072 , -23.512 , 0
42.58 , 4.663 , 5.072 , -23.512 , 0
42.67 , 4.607 , 4.981 , -23.499 , 0
42.8 , 4.536 , 4.908 , -23.421 , 0
42.88 , 4.497 , 4.908 , -23.421 , 0
42.98 , 4.441 , 4.817 , -23.119 , 0
43.11 , 4.367 , 4.757 , -23.198 , 0
43.19 , 4.33 , 4.698 , -23.329 , 0
43.28 , 4.274 , 4.698 , -23.329 , 0
43.41 , 4.198 , 4.617 , -23.342 , 0
43.47 , 4.163 , 4.587 , -23.512 , 0
43.59 , 4.108 , 4.587 , -23.512 , 0
43.7 , 4.038 , 4.53 , -23.276 , 0
43.78 , 3.996 , 4.462 , -23.289 , 0
43.87 , 3.941 , 4.462 , -23.289 , 0
44.0 , 3.87 , 4.421 , -23.46 , 0
44.08 , 3.83 , 4.394 , -23.185 , 0
44.18 , 3.774 , 4.345 , -23.25 , 0
44.3 , 3.701 , 4.345 , -23.25 , 0
44.38 , 3.66 , 4.296 , -23.46 , 0
44.48 , 3.603 , 4.266 , -23.499 , 0
44.58 , 3.552 , 4.266 , -23.499 , 0
44.67 , 3.496 , 4.211 , -23.381 , 0
44.8 , 3.426 , 4.171 , -23.512 , 0
44.88 , 3.386 , 4.154 , -23.434 , 0
44.98 , 3.33 , 4.154 , -23.434 , 0
45.1 , 3.257 , 4.111 , -23.381 , 0
45.18 , 3.219 , 4.06 , -23.394 , 0
45.28 , 3.159 , 4.06 , -23.394 , 0
45.38 , 3.108 , 4.058 , -23.407 , 0
45.47 , 3.052 , 4.007 , -23.25 , 0
45.6 , 2.982 , 4.007 , -23.25 , 0
45.68 , 2.941 , 3.971 , -23.368 , 0
45.78 , 2.885 , 3.949 , -23.263 , 0
45.9 , 2.813 , 3.924 , -23.25 , 0
45.98 , 2.775 , 3.924 , -23.25 , 0
46.08 , 2.719 , 3.896 , -23.434 , 0
46.21 , 2.644 , 3.869 , -23.25 , 0
46.27 , 2.608 , 3.869 , -23.25 , 0
46.38 , 2.552 , 3.839 , -23.276 , 0
46.49 , 2.484 , 3.796 , -23.342 , 0
46.57 , 2.441 , 3.783 , -23.434 , 0
46.67 , 2.386 , 3.783 , -23.434 , 0
46.8 , 2.316 , 3.737 , -23.46 , 0
46.88 , 2.274 , 3.73 , -23.329 , 0
46.97 , 2.219 , 3.73 , -23.329 , 0
47.1 , 2.147 , 3.73 , -23.289 , 0
47.18 , 2.108 , 3.692 , -23.25 , 0
47.28 , 2.052 , 3.692 , -23.25 , 0
47.41 , 1.978 , 3.652 , -23.434 , 0
47.49 , 1.935 , 3.637 , -23.211 , 0
47.58 , 1.885 , 3.598 , -23.25 , 0
47.71 , 1.809 , 3.598 , -23.25 , 0
47.79 , 1.77 , 3.596 , -23.473 , 0
47.89 , 1.719 , 3.56 , -23.303 , 0
48.01 , 1.641 , 3.56 , -23.303 , 0
48.08 , 1.606 , 3.552 , -23.552 , 0
48.17 , 1.552 , 3.518 , -23.303 , 0
48.3 , 1.481 , 3.516 , -23.355 , 0
48.38 , 1.441 , 3.516 , -23.355 , 0
48.48 , 1.386 , 3.467 , -23.342 , 0
48.6 , 1.312 , 3.46 , -23.289 , 0
48.68 , 1.27 , 3.46 , -23.289 , 0
48.78 , 1.219 , 3.454 , -23.499 , 0
48.91 , 1.143 , 3.418 , -23.329 , 0
48.99 , 1.102 , 3.418 , -23.329 , 0
49.08 , 1.052 , 3.394 , -23.447 , 0
49.21 , 0.975 , 3.379 , -23.224 , 0
49.28 , 0.938 , 3.358 , -23.421 , 0
49.37 , 0.886 , 3.358 , -23.421 , 0
49.5 , 0.815 , 3.343 , -23.368 , 0
49.58 , 0.775 , 3.322 , -23.355 , 0
49.68 , 0.719 , 3.322 , -23.355 , 0
49.8 , 0.646 , 3.307 , -23.355 , 0
49.88 , 0.608 , 3.292 , -23.407 , 0
49.98 , 0.552 , 3.277 , -23.368 , 0
50.11 , 0.477 , 3.277 , -23.368 , 0
50.17 , 0.441 , 3.269 , -23.316 , 0
50.28 , 0.386 , 3.222 , -23.421 , 0
50.4 , 0.318 , 3.222 , -23.421 , 0
50.48 , 0.275 , 3.228 , -23.342 , 0
50.57 , 0.219 , 3.201 , -23.355 , 0
50.7 , 0.149 , 3.175 , -23.421 , 0
50.78 , 0.108 , 3.175 , -23.421 , 0
50.87 , 0.052 , 3.169 , -23.381 , 0
51.0 , -0.0 , 3.171 , -23.46 , 0
51.08 , -0.0 , 3.171 , -23.46 , 0
51.18 , 0.004 , 3.152 , -23.421 , 0
51.27 , 0.055 , 3.141 , -23.525 , 0
51.4 , 0.127 , 3.141 , -23.525 , 0
51.48 , 0.166 , 3.046 , -23.368 , 0
51.58 , 0.222 , 2.327 , -23.237 , 0
51.69 , 0.287 , 1.208 , -23.499 , 0
51.79 , 0.333 , 1.208 , -23.499 , 0
51.88 , 0.389 , 0.696 , -23.447 , 0
52.01 , 0.465 , 2.038 , -23.355 , 0
52.07 , 0.5 , 2.038 , -23.355 , 0
52.19 , 0.555 , 3.029 , -23.394 , 0
52.3 , 0.625 , 3.679 , -23.263 , 0
52.38 , 0.666 , 4.122 , -23.538 , 0
52.47 , 0.722 , 4.122 , -23.538 , 0
52.6 , 0.793 , 4.02 , -23.316 , 0
52.68 , 0.833 , 3.177 , -23.473 , 0
52.78 , 0.888 , 3.177 , -23.473 , 0
52.91 , 0.962 , 2.539 , -23.434 , 0
52.99 , 0.999 , 2.85 , -23.355 , 0
53.08 , 1.055 , 2.85 , -23.355 , 0
53.21 , 1.131 , 2.871 , -23.473 , 0
53.27 , 1.167 , 3.114 , -23.499 , 0
53.38 , 1.222 , 2.984 , -23.473 , 0
53.5 , 1.291 , 2.984 , -23.473 , 0
53.58 , 1.333 , 2.018 , -23.499 , 0
53.67 , 1.389 , 3.09 , -23.289 , 0
53.8 , 1.46 , 3.09 , -23.289 , 0
53.88 , 1.499 , 2.087 , -23.276 , 0
53.98 , 1.555 , 0.194 , -23.552 , 0
54.1 , 1.628 , -0.102 , -23.421 , 0
54.2 , 1.675 , -0.102 , -23.421 , 0
54.28 , 1.726 , -0.097 , -23.316 , 0
54.38 , 1.777 , -0.104 , -23.63 , 0
54.47 , 1.833 , -0.104 , -23.63 , 0
54.6 , 1.904 , -0.112 , -23.394 , 0
54.68 , 1.944 , -0.093 , -23.434 , 0
54.78 , 2.0 , -0.087 , -23.276 , 0
54.9 , 2.072 , -0.087 , -23.276 , 0
54.98 , 2.113 , 1.855 , -23.381 , 0
55.08 , 2.166 , 3.214 , -23.447 , 0
55.19 , 2.232 , 3.214 , -23.447 , 0
55.27 , 2.277 , 4.553 , -23.355 , 0
55.38 , 2.333 , 6.306 , -23.499 , 0
55.49 , 2.401 , 6.306 , -23.499 , 0
55.57 , 2.444 , 6.033 , -23.434 , 0
55.69 , 2.5 , 4.981 , -23.565 , 0
55.78 , 2.561 , 5.449 , -23.237 , 0
55.88 , 2.611 , 5.449 , -23.237 , 0
55.97 , 2.666 , 4.134 , -23.263 , 0
56.1 , 2.738 , 3.099 , -23.303 , 0
