tra_circ_echI
circ
Time , Disp, Load , Pressure, Volume
0.09 , 0.02 , 4.2 , -24.351 , 0
0.22 , 0.099 , 4.2 , -24.351 , 0
0.29 , 0.132 , 4.2 , -24.417 , 0
0.38 , 0.188 , 4.207 , -24.443 , 0
0.51 , 0.259 , 4.219 , -24.39 , 0
0.59 , 0.299 , 4.219 , -24.39 , 0
0.69 , 0.354 , 4.239 , -24.548 , 0
0.81 , 0.428 , 4.256 , -24.325 , 0
0.89 , 0.466 , 4.256 , -24.325 , 0
0.99 , 0.521 , 4.283 , -24.246 , 0
1.12 , 0.597 , 4.29 , -24.259 , 0
1.18 , 0.632 , 4.319 , -24.207 , 0
1.29 , 0.688 , 4.319 , -24.207 , 0
1.41 , 0.757 , 4.341 , -24.338 , 0
1.49 , 0.799 , 4.364 , -24.39 , 0
1.58 , 0.855 , 4.364 , -24.39 , 0
1.71 , 0.925 , 4.387 , -24.272 , 0
1.79 , 0.965 , 4.411 , -24.338 , 0
1.89 , 1.021 , 4.432 , -24.351 , 0
2.01 , 1.094 , 4.432 , -24.351 , 0
2.09 , 1.132 , 4.451 , -24.456 , 0
2.19 , 1.188 , 4.481 , -24.286 , 0
2.32 , 1.263 , 4.481 , -24.286 , 0
2.38 , 1.299 , 4.504 , -24.43 , 0
2.49 , 1.354 , 4.543 , -24.403 , 0
2.6 , 1.423 , 4.543 , -24.403 , 0
2.68 , 1.466 , 4.57 , -24.351 , 0
2.78 , 1.521 , 4.596 , -24.377 , 0
2.91 , 1.591 , 4.628 , -24.482 , 0
2.99 , 1.632 , 4.628 , -24.482 , 0
3.08 , 1.688 , 4.668 , -24.443 , 0
3.21 , 1.76 , 4.706 , -24.338 , 0
3.29 , 1.799 , 4.706 , -24.338 , 0
3.39 , 1.855 , 4.76 , -24.338 , 0
3.52 , 1.929 , 4.802 , -24.168 , 0
3.58 , 1.965 , 4.826 , -24.417 , 0
3.69 , 2.021 , 4.826 , -24.417 , 0
3.8 , 2.089 , 4.872 , -24.312 , 0
3.88 , 2.132 , 4.919 , -24.299 , 0
4.0 , 2.188 , 4.919 , -24.299 , 0
4.11 , 2.257 , 4.983 , -24.482 , 0
4.19 , 2.299 , 5.034 , -24.469 , 0
4.28 , 2.354 , 5.034 , -24.469 , 0
4.41 , 2.426 , 5.059 , -24.351 , 0
4.49 , 2.466 , 5.161 , -24.39 , 0
4.59 , 2.521 , 5.227 , -24.417 , 0
4.7 , 2.586 , 5.227 , -24.417 , 0
4.79 , 2.632 , 5.287 , -24.574 , 0
4.89 , 2.688 , 5.351 , -24.286 , 0
5.02 , 2.764 , 5.351 , -24.286 , 0
5.08 , 2.799 , 5.438 , -24.272 , 0
5.19 , 2.854 , 5.514 , -24.417 , 0
5.31 , 2.923 , 5.606 , -24.482 , 0
5.39 , 2.966 , 5.606 , -24.482 , 0
5.48 , 3.021 , 5.71 , -24.456 , 0
5.61 , 3.092 , 5.81 , -24.325 , 0
5.69 , 3.132 , 5.81 , -24.325 , 0
5.79 , 3.188 , 5.899 , -24.299 , 0
5.9 , 3.252 , 6.027 , -24.207 , 0
5.99 , 3.299 , 6.027 , -24.207 , 0
6.09 , 3.355 , 6.142 , -24.22 , 0
6.2 , 3.421 , 6.267 , -24.168 , 0
6.28 , 3.466 , 6.374 , -24.154 , 0
6.39 , 3.521 , 6.374 , -24.154 , 0
6.51 , 3.589 , 6.491 , -24.574 , 0
6.58 , 3.632 , 6.614 , -24.377 , 0
6.68 , 3.688 , 6.614 , -24.377 , 0
6.81 , 3.758 , 6.718 , -24.325 , 0
6.89 , 3.799 , 6.841 , -24.403 , 0
6.98 , 3.854 , 6.954 , -24.548 , 0
7.11 , 3.927 , 6.954 , -24.548 , 0
7.19 , 3.966 , 7.086 , -24.482 , 0
7.29 , 4.021 , 7.203 , -24.286 , 0
7.42 , 4.095 , 7.203 , -24.286 , 0
7.48 , 4.132 , 7.331 , -24.259 , 0
7.59 , 4.188 , 7.462 , -24.312 , 0
7.7 , 4.255 , 7.462 , -24.312 , 0
7.78 , 4.299 , 7.601 , -24.259 , 0
7.9 , 4.355 , 7.726 , -24.351 , 0
7.99 , 4.415 , 7.866 , -24.312 , 0
8.09 , 4.465 , 7.866 , -24.312 , 0
8.18 , 4.521 , 7.99 , -24.259 , 0
8.31 , 4.593 , 8.126 , -24.299 , 0
8.39 , 4.632 , 8.126 , -24.299 , 0
8.49 , 4.688 , 8.275 , -24.39 , 0
8.61 , 4.761 , 8.417 , -24.338 , 0
8.69 , 4.799 , 8.577 , -24.312 , 0
8.79 , 4.854 , 8.577 , -24.312 , 0
8.92 , 4.93 , 8.753 , -24.469 , 0
8.98 , 4.965 , 8.891 , -24.403 , 0
9.09 , 5.021 , 8.891 , -24.403 , 0
9.21 , 5.09 , 9.049 , -24.246 , 0
9.29 , 5.133 , 9.276 , -24.377 , 0
9.38 , 5.188 , 9.444 , -24.469 , 0
9.51 , 5.259 , 9.444 , -24.469 , 0
9.59 , 5.299 , 9.614 , -24.417 , 0
9.69 , 5.355 , 9.844 , -24.39 , 0
9.81 , 5.428 , 9.844 , -24.39 , 0
9.89 , 5.465 , 10.018 , -24.076 , 0
9.99 , 5.521 , 10.233 , -24.403 , 0
10.12 , 5.596 , 10.233 , -24.403 , 0
10.18 , 5.632 , 10.484 , -24.39 , 0
10.29 , 5.688 , 10.707 , -24.535 , 0
10.41 , 5.756 , 10.882 , -24.272 , 0
10.49 , 5.799 , 10.882 , -24.272 , 0
10.58 , 5.855 , 10.831 , -24.325 , 0
10.71 , 5.925 , 10.954 , -24.521 , 0
10.79 , 5.966 , 10.954 , -24.521 , 0
10.88 , 6.021 , 11.248 , -24.43 , 0
11.01 , 6.094 , 11.469 , -24.115 , 0
11.09 , 6.132 , 11.701 , -24.22 , 0
11.19 , 6.188 , 11.701 , -24.22 , 0
11.32 , 6.262 , 11.952 , -24.469 , 0
11.38 , 6.298 , 11.945 , -24.22 , 0
11.49 , 6.354 , 11.945 , -24.22 , 0
11.6 , 6.422 , 11.669 , -24.233 , 0
11.68 , 6.465 , 11.964 , -24.377 , 0
11.78 , 6.521 , 11.964 , -24.377 , 0
11.91 , 6.591 , 12.356 , -24.351 , 0
11.99 , 6.632 , 12.675 , -24.456 , 0
12.08 , 6.688 , 12.894 , -24.43 , 0
12.21 , 6.76 , 12.894 , -24.43 , 0
12.29 , 6.799 , 13.164 , -24.338 , 0
12.39 , 6.854 , 13.459 , -24.456 , 0
12.52 , 6.928 , 13.459 , -24.456 , 0
12.6 , 6.965 , 13.712 , -24.364 , 0
12.69 , 7.021 , 13.982 , -24.377 , 0
12.82 , 7.097 , 14.297 , -24.351 , 0
12.88 , 7.132 , 14.297 , -24.351 , 0
12.99 , 7.188 , 14.544 , -24.272 , 0
13.11 , 7.257 , 14.784 , -24.272 , 0
13.19 , 7.299 , 14.784 , -24.272 , 0
13.28 , 7.354 , 15.082 , -24.259 , 0
13.39 , 7.41 , 15.301 , -24.403 , 0
13.49 , 7.466 , 15.301 , -24.403 , 0
13.62 , 7.5 , 15.554 , -24.338 , 0
13.71 , 7.5 , 15.852 , -24.299 , 0
13.79 , 7.5 , 16.077 , -24.272 , 0
13.89 , 7.5 , 16.077 , -24.272 , 0
13.99 , 7.5 , 16.158 , -24.299 , 0
14.08 , 7.5 , 15.813 , -24.364 , 0
14.19 , 7.5 , 15.813 , -24.364 , 0
14.29 , 7.5 , 15.541 , -24.207 , 0
14.39 , 7.5 , 15.35 , -24.259 , 0
14.48 , 7.5 , 15.15 , -24.181 , 0
14.59 , 7.5 , 15.15 , -24.181 , 0
14.69 , 7.5 , 14.995 , -24.246 , 0
14.78 , 7.5 , 14.888 , -24.246 , 0
14.88 , 7.5 , 14.888 , -24.246 , 0
14.99 , 7.5 , 14.767 , -24.168 , 0
15.09 , 7.5 , 14.697 , -24.207 , 0
15.18 , 7.5 , 14.697 , -24.207 , 0
15.28 , 7.5 , 14.622 , -24.403 , 0
15.39 , 7.5 , 14.537 , -24.272 , 0
15.49 , 7.5 , 14.461 , -24.259 , 0
15.58 , 7.5 , 14.461 , -24.259 , 0
15.7 , 7.5 , 14.408 , -24.286 , 0
15.79 , 7.5 , 14.337 , -24.272 , 0
15.89 , 7.5 , 14.337 , -24.272 , 0
15.98 , 7.5 , 14.286 , -24.259 , 0
16.1 , 7.5 , 14.233 , -24.259 , 0
16.19 , 7.5 , 14.178 , -24.207 , 0
16.29 , 7.5 , 14.178 , -24.207 , 0
16.4 , 7.5 , 14.142 , -24.299 , 0
16.5 , 7.5 , 14.097 , -24.364 , 0
16.59 , 7.5 , 14.097 , -24.364 , 0
16.69 , 7.5 , 14.048 , -24.325 , 0
16.78 , 7.5 , 14.014 , -24.364 , 0
16.89 , 7.5 , 13.976 , -24.299 , 0
16.99 , 7.5 , 13.976 , -24.299 , 0
17.09 , 7.5 , 13.936 , -24.312 , 0
17.18 , 7.5 , 13.893 , -24.207 , 0
17.29 , 7.5 , 13.893 , -24.207 , 0
17.39 , 7.5 , 13.87 , -24.456 , 0
17.49 , 7.5 , 13.829 , -24.377 , 0
17.58 , 7.5 , 13.829 , -24.377 , 0
17.69 , 7.5 , 13.808 , -24.272 , 0
17.79 , 7.5 , 13.768 , -24.286 , 0
17.89 , 7.5 , 13.742 , -24.312 , 0
17.98 , 7.5 , 13.742 , -24.312 , 0
18.09 , 7.5 , 13.71 , -24.338 , 0
18.19 , 7.5 , 13.682 , -24.469 , 0
18.28 , 7.5 , 13.682 , -24.469 , 0
18.38 , 7.5 , 13.653 , -24.286 , 0
18.49 , 7.5 , 13.627 , -24.338 , 0
18.59 , 7.5 , 13.625 , -24.286 , 0
18.68 , 7.5 , 13.625 , -24.286 , 0
18.78 , 7.5 , 13.587 , -24.417 , 0
18.89 , 7.5 , 13.544 , -24.22 , 0
18.99 , 7.5 , 13.544 , -24.22 , 0
19.08 , 7.5 , 13.536 , -24.259 , 0
19.18 , 7.5 , 13.521 , -24.259 , 0
19.29 , 7.5 , 13.521 , -24.259 , 0
19.39 , 7.5 , 13.487 , -24.312 , 0
19.48 , 7.5 , 13.478 , -24.417 , 0
19.6 , 7.5 , 13.438 , -24.154 , 0
19.69 , 7.5 , 13.438 , -24.154 , 0
19.79 , 7.5 , 13.425 , -24.417 , 0
19.88 , 7.5 , 13.412 , -24.521 , 0
20.0 , 7.5 , 13.412 , -24.521 , 0
20.09 , 7.5 , 13.385 , -24.312 , 0
20.19 , 7.5 , 13.366 , -24.089 , 0
20.28 , 7.5 , 13.351 , -24.377 , 0
20.4 , 7.5 , 13.351 , -24.377 , 0
20.49 , 7.5 , 13.323 , -24.364 , 0
20.59 , 7.5 , 13.325 , -24.39 , 0
20.68 , 7.5 , 13.325 , -24.39 , 0
20.79 , 7.5 , 13.298 , -24.338 , 0
20.89 , 7.5 , 13.278 , -24.364 , 0
20.99 , 7.5 , 13.278 , -24.364 , 0
21.08 , 7.5 , 13.249 , -24.181 , 0
21.19 , 7.5 , 13.249 , -24.246 , 0
21.29 , 7.5 , 13.234 , -24.141 , 0
21.39 , 7.5 , 13.234 , -24.141 , 0
21.48 , 7.5 , 13.208 , -24.272 , 0
21.59 , 7.5 , 13.198 , -24.272 , 0
21.69 , 7.5 , 13.198 , -24.272 , 0
21.79 , 7.5 , 13.164 , -24.364 , 0
21.88 , 7.5 , 13.151 , -24.299 , 0
21.99 , 7.5 , 13.149 , -24.443 , 0
22.09 , 7.5 , 13.149 , -24.443 , 0
22.19 , 7.5 , 13.125 , -24.325 , 0
22.28 , 7.5 , 13.119 , -24.286 , 0
22.39 , 7.5 , 13.119 , -24.286 , 0
22.49 , 7.5 , 13.096 , -24.312 , 0
22.59 , 7.5 , 13.079 , -24.272 , 0
22.68 , 7.5 , 13.079 , -24.272 , 0
22.79 , 7.5 , 13.066 , -24.194 , 0
22.89 , 7.5 , 13.053 , -24.338 , 0
22.98 , 7.5 , 13.045 , -24.128 , 0
23.08 , 7.5 , 13.045 , -24.128 , 0
23.19 , 7.5 , 13.038 , -24.299 , 0
23.29 , 7.5 , 13.03 , -24.272 , 0
23.38 , 7.5 , 13.03 , -24.272 , 0
23.48 , 7.5 , 13.023 , -24.364 , 0
23.59 , 7.5 , 12.994 , -24.364 , 0
23.69 , 7.5 , 12.976 , -24.351 , 0
23.78 , 7.5 , 12.976 , -24.351 , 0
23.9 , 7.5 , 12.964 , -24.233 , 0
23.99 , 7.5 , 12.968 , -24.338 , 0
24.09 , 7.5 , 12.968 , -24.338 , 0
24.18 , 7.5 , 12.949 , -24.194 , 0
24.3 , 7.5 , 12.938 , -24.233 , 0
24.39 , 7.5 , 12.93 , -24.194 , 0
24.49 , 7.5 , 12.93 , -24.194 , 0

End Pause

24.6 , 7.5 , 12.921 , -24.364 , 0
24.69 , 7.5 , 12.911 , -24.351 , 0
24.79 , 7.5 , 12.911 , -24.351 , 0
24.89 , 7.5 , 12.904 , -24.325 , 0
24.98 , 7.5 , 12.881 , -24.063 , 0
25.09 , 7.5 , 12.881 , -24.063 , 0
25.19 , 7.5 , 12.879 , -24.207 , 0
25.29 , 7.5 , 12.857 , -24.089 , 0
25.38 , 7.5 , 12.851 , -24.194 , 0
25.49 , 7.5 , 12.851 , -24.194 , 0
25.59 , 7.5 , 12.836 , -24.377 , 0
25.69 , 7.5 , 12.828 , -24.141 , 0
25.78 , 7.5 , 12.828 , -24.141 , 0
25.89 , 7.5 , 12.828 , -24.403 , 0
25.99 , 7.5 , 12.819 , -24.325 , 0
26.09 , 7.5 , 12.804 , -24.246 , 0
26.18 , 7.5 , 12.804 , -24.246 , 0
26.29 , 7.5 , 12.785 , -24.469 , 0
26.39 , 7.5 , 12.774 , -24.207 , 0
26.48 , 7.5 , 12.774 , -24.207 , 0
26.58 , 7.5 , 12.766 , -24.403 , 0
26.69 , 7.5 , 12.764 , -24.482 , 0
26.79 , 7.5 , 12.764 , -24.482 , 0
26.88 , 7.5 , 12.751 , -24.259 , 0
26.98 , 7.5 , 12.745 , -24.338 , 0
27.09 , 7.5 , 12.732 , -24.233 , 0
27.19 , 7.5 , 12.732 , -24.233 , 0
27.28 , 7.5 , 12.73 , -24.207 , 0
27.4 , 7.5 , 12.723 , -24.508 , 0
27.49 , 7.5 , 12.723 , -24.508 , 0
27.59 , 7.5 , 12.717 , -24.207 , 0
27.68 , 7.5 , 12.711 , -24.39 , 0
27.78 , 7.5 , 12.706 , -24.181 , 0
27.89 , 7.5 , 12.706 , -24.181 , 0
27.99 , 7.5 , 12.672 , -24.443 , 0
28.08 , 7.5 , 12.685 , -24.43 , 0
28.2 , 7.5 , 12.685 , -24.43 , 0
28.29 , 7.5 , 12.67 , -24.325 , 0
28.39 , 7.5 , 12.658 , -24.403 , 0
28.48 , 7.5 , 12.658 , -24.403 , 0
28.6 , 7.5 , 12.658 , -24.403 , 0
28.69 , 7.5 , 12.64 , -24.364 , 0
28.79 , 7.5 , 12.621 , -24.076 , 0
28.88 , 7.5 , 12.621 , -24.076 , 0
28.99 , 7.5 , 12.638 , -24.325 , 0
29.09 , 7.5 , 12.619 , -24.338 , 0
29.19 , 7.5 , 12.619 , -24.338 , 0
29.28 , 7.5 , 12.613 , -24.39 , 0
29.39 , 7.5 , 12.604 , -24.443 , 0
29.49 , 7.5 , 12.592 , -24.128 , 0
29.59 , 7.5 , 12.592 , -24.128 , 0
29.7 , 7.493 , 12.592 , -24.272 , 0
29.79 , 7.439 , 12.587 , -24.325 , 0
29.89 , 7.383 , 12.587 , -24.325 , 0
29.99 , 7.327 , 12.575 , -24.286 , 0
30.08 , 7.272 , 12.43 , -24.181 , 0
30.19 , 7.216 , 11.962 , -24.403 , 0
30.29 , 7.161 , 11.962 , -24.403 , 0
30.39 , 7.105 , 11.154 , -24.246 , 0
30.48 , 7.049 , 10.601 , -24.299 , 0
30.59 , 6.994 , 10.601 , -24.299 , 0
30.69 , 6.938 , 10.08 , -24.364 , 0
30.79 , 6.883 , 9.523 , -24.168 , 0
30.88 , 6.827 , 9.523 , -24.168 , 0
30.99 , 6.772 , 9.121 , -24.299 , 0
31.09 , 6.716 , 8.774 , -24.076 , 0
31.18 , 6.66 , 8.362 , -24.377 , 0
31.28 , 6.605 , 8.362 , -24.377 , 0
31.39 , 6.549 , 8.056 , -24.39 , 0
31.49 , 6.494 , 7.811 , -24.417 , 0
31.58 , 6.438 , 7.811 , -24.417 , 0
31.7 , 6.383 , 7.509 , -24.456 , 0
31.79 , 6.328 , 7.28 , -24.312 , 0
31.89 , 6.272 , 7.088 , -24.364 , 0
31.98 , 6.216 , 7.088 , -24.364 , 0
32.1 , 6.161 , 6.869 , -24.312 , 0
32.19 , 6.105 , 6.705 , -24.194 , 0
32.29 , 6.05 , 6.705 , -24.194 , 0
32.38 , 5.994 , 6.552 , -24.286 , 0
32.5 , 5.938 , 6.397 , -24.456 , 0
32.59 , 5.883 , 6.397 , -24.456 , 0
32.69 , 5.827 , 6.28 , -24.456 , 0
32.78 , 5.772 , 6.182 , -24.272 , 0
32.9 , 5.716 , 6.055 , -24.299 , 0
32.99 , 5.661 , 6.055 , -24.299 , 0
33.09 , 5.605 , 5.963 , -24.364 , 0
33.18 , 5.55 , 5.878 , -24.246 , 0
33.29 , 5.494 , 5.878 , -24.246 , 0
33.39 , 5.439 , 5.799 , -24.207 , 0
33.49 , 5.383 , 5.714 , -24.338 , 0
33.58 , 5.327 , 5.659 , -24.272 , 0
33.69 , 5.272 , 5.659 , -24.272 , 0
33.79 , 5.216 , 5.58 , -24.364 , 0
33.89 , 5.161 , 5.523 , -24.207 , 0
33.98 , 5.105 , 5.523 , -24.207 , 0
34.09 , 5.049 , 5.457 , -24.325 , 0
34.19 , 4.994 , 5.393 , -24.076 , 0
34.29 , 4.939 , 5.393 , -24.076 , 0
34.38 , 4.883 , 5.344 , -24.272 , 0
34.49 , 4.827 , 5.315 , -24.181 , 0
34.59 , 4.772 , 5.274 , -24.168 , 0
34.69 , 4.716 , 5.274 , -24.168 , 0
34.78 , 4.66 , 5.221 , -24.168 , 0
34.89 , 4.605 , 5.168 , -24.259 , 0
34.99 , 4.55 , 5.168 , -24.259 , 0
35.08 , 4.494 , 5.134 , -24.286 , 0
35.2 , 4.438 , 5.098 , -24.141 , 0
35.29 , 4.383 , 5.074 , -24.325 , 0
35.39 , 4.327 , 5.074 , -24.325 , 0
35.48 , 4.272 , 5.049 , -24.312 , 0
35.58 , 4.216 , 5.011 , -24.272 , 0
35.69 , 4.161 , 5.011 , -24.272 , 0
35.79 , 4.105 , 4.959 , -24.286 , 0
35.88 , 4.05 , 4.934 , -24.482 , 0
36.0 , 3.994 , 4.934 , -24.482 , 0
36.09 , 3.939 , 4.913 , -24.207 , 0
36.19 , 3.883 , 4.891 , -24.181 , 0
36.28 , 3.827 , 4.847 , -24.259 , 0
36.4 , 3.772 , 4.847 , -24.259 , 0
36.49 , 3.716 , 4.821 , -24.272 , 0
36.59 , 3.661 , 4.802 , -24.351 , 0
36.68 , 3.605 , 4.802 , -24.351 , 0
36.8 , 3.55 , 4.781 , -24.194 , 0
36.89 , 3.494 , 4.738 , -24.233 , 0
36.99 , 3.439 , 4.715 , -24.325 , 0
37.08 , 3.383 , 4.715 , -24.325 , 0
37.19 , 3.327 , 4.694 , -24.233 , 0
37.29 , 3.272 , 4.679 , -24.312 , 0
37.39 , 3.217 , 4.679 , -24.312 , 0
37.48 , 3.16 , 4.655 , -24.299 , 0
37.59 , 3.105 , 4.632 , -24.377 , 0
37.69 , 3.05 , 4.617 , -24.246 , 0
37.79 , 2.994 , 4.617 , -24.246 , 0
37.88 , 2.939 , 4.604 , -24.338 , 0
37.99 , 2.883 , 4.568 , -24.456 , 0
38.09 , 2.827 , 4.568 , -24.456 , 0
38.19 , 2.772 , 4.545 , -24.246 , 0
38.28 , 2.717 , 4.532 , -24.312 , 0
38.39 , 2.661 , 4.532 , -24.312 , 0
38.49 , 2.605 , 4.502 , -24.141 , 0
38.59 , 2.55 , 4.494 , -24.312 , 0
38.68 , 2.494 , 4.494 , -24.141 , 0
38.79 , 2.438 , 4.494 , -24.141 , 0
38.89 , 2.383 , 4.47 , -24.272 , 0
38.98 , 2.327 , 4.43 , -24.417 , 0
39.08 , 2.272 , 4.43 , -24.417 , 0
39.19 , 2.217 , 4.424 , -24.063 , 0
39.29 , 2.161 , 4.4 , -24.259 , 0
39.38 , 2.105 , 4.385 , -24.272 , 0
39.48 , 2.05 , 4.385 , -24.272 , 0
39.59 , 1.994 , 4.377 , -24.377 , 0
39.69 , 1.939 , 4.362 , -24.246 , 0
39.78 , 1.883 , 4.362 , -24.246 , 0
39.9 , 1.827 , 4.328 , -24.22 , 0
39.99 , 1.772 , 4.319 , -24.233 , 0
40.09 , 1.716 , 4.319 , -24.233 , 0
40.18 , 1.661 , 4.298 , -24.089 , 0
40.3 , 1.605 , 4.281 , -24.351 , 0
40.39 , 1.55 , 4.266 , -24.22 , 0
40.49 , 1.494 , 4.266 , -24.22 , 0
40.58 , 1.438 , 4.264 , -24.364 , 0
40.7 , 1.383 , 4.232 , -24.351 , 0
40.79 , 1.328 , 4.232 , -24.351 , 0
40.89 , 1.272 , 4.217 , -24.154 , 0
40.98 , 1.216 , 4.215 , -24.39 , 0
41.09 , 1.161 , 4.192 , -24.312 , 0
41.19 , 1.105 , 4.192 , -24.312 , 0
41.29 , 1.05 , 4.177 , -24.351 , 0
41.38 , 0.994 , 4.173 , -24.338 , 0
41.49 , 0.938 , 4.173 , -24.338 , 0
41.59 , 0.883 , 4.151 , -24.22 , 0
41.69 , 0.827 , 4.139 , -24.194 , 0
41.78 , 0.772 , 4.139 , -24.194 , 0
41.89 , 0.716 , 4.137 , -24.141 , 0
41.99 , 0.661 , 4.124 , -24.259 , 0
42.09 , 0.605 , 4.111 , -24.39 , 0
42.18 , 0.55 , 4.111 , -24.39 , 0
42.29 , 0.494 , 4.107 , -24.325 , 0
42.39 , 0.439 , 4.105 , -24.22 , 0
42.49 , 0.383 , 4.105 , -24.22 , 0
42.58 , 0.328 , 4.094 , -24.377 , 0
42.69 , 0.272 , 4.073 , -24.299 , 0
42.79 , 0.216 , 4.073 , -24.181 , 0
42.88 , 0.161 , 4.073 , -24.181 , 0
42.98 , 0.105 , 4.056 , -24.233 , 0
43.09 , 0.05 , 4.06 , -24.141 , 0
43.19 , 0.0 , 4.06 , -24.141 , 0
43.28 , -0.0 , 4.062 , -24.325 , 0
43.38 , -0.0 , 4.049 , -24.272 , 0
43.49 , -0.0 , 4.056 , -24.233 , 0
43.59 , -0.0 , 4.056 , -24.233 , 0
43.68 , -0.0 , 4.045 , -24.377 , 0
43.8 , -0.0 , 4.043 , -24.22 , 0
43.89 , -0.0 , 4.043 , -24.22 , 0
43.99 , -0.0 , 4.056 , -24.181 , 0
44.08 , -0.0 , 4.056 , -24.39 , 0
44.2 , -0.0 , 4.056 , -24.39 , 0
44.29 , -0.0 , 4.064 , -24.233 , 0
44.39 , 0.0 , 4.058 , -24.246 , 0
44.48 , 0.0 , 4.056 , -24.233 , 0
44.6 , 0.0 , 4.056 , -24.233 , 0
44.69 , 0.0 , 4.054 , -24.377 , 0
44.79 , 0.0 , 4.054 , -24.22 , 0
44.88 , 0.0 , 4.054 , -24.22 , 0
45.0 , 0.0 , 4.071 , -24.286 , 0
45.09 , 0.0 , 4.064 , -24.351 , 0
45.19 , 0.0 , 4.058 , -24.168 , 0
45.28 , 0.0 , 4.058 , -24.168 , 0
45.39 , 0.0 , 4.058 , -24.456 , 0
45.49 , 0.0 , 4.06 , -24.299 , 0
45.59 , 0.0 , 4.06 , -24.299 , 0
45.68 , 0.0 , 4.071 , -24.141 , 0
45.79 , 0.0 , 4.081 , -24.233 , 0
45.89 , 0.0 , 4.081 , -24.233 , 0
45.99 , 0.0 , 4.066 , -24.168 , 0
46.08 , 0.0 , 4.064 , -24.338 , 0
46.19 , 0.0 , 4.066 , -24.181 , 0
46.29 , 0.0 , 4.066 , -24.181 , 0
46.39 , 0.0 , 4.06 , -24.286 , 0
46.48 , 0.0 , 4.073 , -24.299 , 0
46.59 , 0.0 , 4.073 , -24.299 , 0
46.69 , 0.0 , 4.068 , -24.338 , 0
46.79 , 0.0 , 4.071 , -24.377 , 0
46.88 , 0.0 , 4.071 , -24.364 , 0
46.99 , 0.0 , 4.071 , -24.364 , 0
47.09 , 0.0 , 4.077 , -24.286 , 0
47.19 , 0.0 , 4.071 , -24.141 , 0
47.28 , 0.0 , 4.071 , -24.141 , 0
47.39 , 0.0 , 4.077 , -24.272 , 0
47.49 , 0.0 , 4.073 , -24.207 , 0
47.58 , 0.0 , 4.073 , -24.207 , 0
47.68 , 0.0 , 4.073 , -24.115 , 0

End Pause

47.79 , 0.021 , 4.064 , -24.246 , 0
47.89 , 0.071 , 4.071 , -24.246 , 0
47.98 , 0.126 , 4.071 , -24.246 , 0
48.11 , 0.199 , 4.068 , -24.338 , 0
48.19 , 0.238 , 4.081 , -24.076 , 0
48.29 , 0.294 , 4.081 , -24.076 , 0
48.42 , 0.368 , 4.092 , -24.089 , 0
48.5 , 0.405 , 4.1 , -24.377 , 0
48.59 , 0.46 , 4.096 , -24.246 , 0
48.72 , 0.537 , 4.096 , -24.246 , 0
48.8 , 0.577 , 4.115 , -24.299 , 0
48.9 , 0.627 , 4.117 , -24.351 , 0
49.02 , 0.705 , 4.117 , -24.351 , 0
49.09 , 0.74 , 4.126 , -24.233 , 0
49.18 , 0.794 , 4.143 , -24.154 , 0
49.3 , 0.849 , 4.151 , -24.259 , 0
49.39 , 0.904 , 4.151 , -24.259 , 0
49.52 , 0.981 , 4.147 , -24.299 , 0
49.58 , 1.016 , 4.164 , -24.39 , 0
49.69 , 1.072 , 4.164 , -24.39 , 0
49.81 , 1.14 , 4.188 , -24.115 , 0
49.89 , 1.182 , 4.185 , -24.154 , 0
49.98 , 1.238 , 4.185 , -24.154 , 0
50.1 , 1.3 , 4.209 , -24.233 , 0
50.19 , 1.349 , 4.228 , -24.259 , 0
50.29 , 1.405 , 4.228 , -24.207 , 0
50.4 , 1.469 , 4.228 , -24.207 , 0
50.49 , 1.516 , 4.253 , -24.286 , 0
50.59 , 1.572 , 4.266 , -24.181 , 0
50.72 , 1.647 , 4.266 , -24.181 , 0
50.8 , 1.685 , 4.275 , -24.338 , 0
50.89 , 1.738 , 4.294 , -24.246 , 0
51.02 , 1.815 , 4.315 , -24.312 , 0
51.09 , 1.851 , 4.315 , -24.312 , 0
51.18 , 1.905 , 4.33 , -24.194 , 0
51.31 , 1.975 , 4.336 , -24.194 , 0
51.39 , 2.016 , 4.336 , -24.194 , 0
51.49 , 2.072 , 4.37 , -24.233 , 0
51.6 , 2.135 , 4.385 , -24.377 , 0
51.69 , 2.182 , 4.385 , -24.377 , 0
51.79 , 2.238 , 4.4 , -24.141 , 0
51.9 , 2.304 , 4.411 , -24.076 , 0
51.98 , 2.349 , 4.432 , -24.036 , 0
52.09 , 2.404 , 4.432 , -24.036 , 0
52.2 , 2.472 , 4.447 , -24.233 , 0
52.28 , 2.516 , 4.481 , -24.312 , 0
52.38 , 2.571 , 4.481 , -24.312 , 0
52.51 , 2.641 , 4.5 , -24.05 , 0
52.59 , 2.682 , 4.507 , -24.233 , 0
52.68 , 2.738 , 4.524 , -24.168 , 0
52.81 , 2.81 , 4.524 , -24.168 , 0
52.89 , 2.849 , 4.553 , -24.194 , 0
52.99 , 2.904 , 4.566 , -24.351 , 0
53.12 , 2.979 , 4.566 , -24.351 , 0
53.2 , 3.016 , 4.596 , -24.154 , 0
53.29 , 3.071 , 4.619 , -24.233 , 0
53.42 , 3.148 , 4.619 , -24.233 , 0
53.5 , 3.189 , 4.647 , -24.286 , 0
53.6 , 3.238 , 4.66 , -24.154 , 0
53.72 , 3.316 , 4.681 , -24.207 , 0
53.79 , 3.351 , 4.681 , -24.207 , 0
53.88 , 3.405 , 4.715 , -24.312 , 0
54.01 , 3.476 , 4.743 , -24.272 , 0
54.09 , 3.516 , 4.743 , -24.272 , 0
54.19 , 3.571 , 4.774 , -24.312 , 0
54.31 , 3.645 , 4.789 , -24.181 , 0
54.39 , 3.683 , 4.83 , -24.299 , 0
54.49 , 3.738 , 4.83 , -24.299 , 0
54.62 , 3.814 , 4.851 , -24.338 , 0
54.68 , 3.85 , 4.872 , -24.403 , 0
54.79 , 3.904 , 4.872 , -24.403 , 0
54.91 , 3.973 , 4.894 , -24.403 , 0
54.99 , 4.016 , 4.928 , -24.207 , 0
55.08 , 4.071 , 4.928 , -24.207 , 0
55.19 , 4.133 , 4.955 , -24.181 , 0
55.29 , 4.182 , 4.985 , -24.351 , 0
55.39 , 4.238 , 5.036 , -24.233 , 0
55.5 , 4.302 , 5.036 , -24.233 , 0
55.59 , 4.349 , 5.049 , -24.377 , 0
55.69 , 4.404 , 5.106 , -24.128 , 0
55.8 , 4.471 , 5.106 , -24.128 , 0
55.88 , 4.516 , 5.123 , -24.181 , 0
55.99 , 4.571 , 5.151 , -24.377 , 0
56.11 , 4.64 , 5.219 , -24.102 , 0
56.19 , 4.682 , 5.219 , -24.102 , 0
56.28 , 4.738 , 5.259 , -24.246 , 0
56.39 , 4.799 , 5.3 , -24.128 , 0
56.49 , 4.849 , 5.3 , -24.128 , 0
56.58 , 4.904 , 5.344 , -24.272 , 0
