caro_circ_V
circ
Time , Disp, Load , Pressure, Volume
0.11 , 1.589 , -0.015 , 119.973 , 0
0.18 , 1.631 , -0.013 , 120.051 , 0
0.28 , 1.686 , -0.011 , 120.025 , 0
0.37 , 1.735 , -0.011 , 120.025 , 0
0.47 , 1.791 , -0.008 , 120.13 , 0
0.57 , 1.846 , -0.017 , 120.091 , 0
0.67 , 1.902 , 0.0 , 119.999 , 0
0.81 , 1.98 , 0.0 , 119.999 , 0
0.89 , 2.022 , -0.019 , 120.064 , 0
0.98 , 2.074 , 0.0 , 119.973 , 0
1.07 , 2.124 , 0.0 , 119.973 , 0
1.17 , 2.18 , 0.004 , 119.973 , 0
1.31 , 2.259 , 0.011 , 119.776 , 0
1.39 , 2.303 , 0.038 , 119.907 , 0
1.49 , 2.358 , 0.038 , 119.907 , 0
1.57 , 2.402 , 0.019 , 119.907 , 0
1.67 , 2.457 , 0.026 , 120.169 , 0
1.81 , 2.536 , 0.026 , 120.169 , 0
1.88 , 2.573 , 0.032 , 120.091 , 0
1.98 , 2.629 , 0.045 , 119.907 , 0
2.07 , 2.68 , 0.045 , 119.907 , 0
2.17 , 2.736 , 0.06 , 119.999 , 0
2.32 , 2.815 , 0.053 , 120.038 , 0
2.39 , 2.854 , 0.06 , 119.999 , 0
2.48 , 2.904 , 0.06 , 119.999 , 0
2.57 , 2.957 , 0.074 , 119.868 , 0
2.67 , 3.013 , 0.072 , 119.881 , 0
2.77 , 3.069 , 0.072 , 119.881 , 0
2.87 , 3.124 , 0.102 , 119.986 , 0
3.02 , 3.204 , 0.087 , 119.907 , 0
3.09 , 3.243 , 0.098 , 119.933 , 0
3.18 , 3.296 , 0.098 , 119.933 , 0
3.27 , 3.347 , 0.111 , 119.907 , 0
3.37 , 3.402 , 0.117 , 119.96 , 0
3.52 , 3.481 , 0.117 , 119.96 , 0
3.58 , 3.519 , 0.14 , 119.789 , 0
3.68 , 3.573 , 0.134 , 119.868 , 0
3.77 , 3.624 , 0.134 , 119.868 , 0
3.87 , 3.68 , 0.155 , 119.829 , 0
4.01 , 3.758 , 0.155 , 119.776 , 0
4.09 , 3.801 , 0.17 , 120.038 , 0
4.18 , 3.852 , 0.17 , 120.038 , 0
4.27 , 3.902 , 0.194 , 120.064 , 0
4.37 , 3.958 , 0.206 , 119.907 , 0
4.51 , 4.036 , 0.206 , 119.907 , 0
4.58 , 4.072 , 0.223 , 119.868 , 0
4.68 , 4.127 , 0.247 , 120.182 , 0
4.77 , 4.179 , 0.276 , 119.933 , 0
4.87 , 4.235 , 0.276 , 119.933 , 0
5.01 , 4.314 , 0.319 , 119.842 , 0
5.08 , 4.353 , 0.347 , 119.999 , 0
5.19 , 4.409 , 0.347 , 119.999 , 0
5.27 , 4.458 , 0.383 , 119.96 , 0
5.37 , 4.513 , 0.434 , 119.933 , 0
5.52 , 4.593 , 0.434 , 119.933 , 0
5.59 , 4.635 , 0.498 , 119.855 , 0
5.69 , 4.689 , 0.568 , 119.855 , 0
5.77 , 4.735 , 0.646 , 119.933 , 0
5.87 , 4.791 , 0.646 , 119.933 , 0
6.01 , 4.867 , 0.729 , 119.907 , 0
6.08 , 4.906 , 0.812 , 119.986 , 0
6.17 , 4.958 , 0.812 , 119.986 , 0
6.27 , 5.013 , 0.931 , 120.038 , 0
6.37 , 5.069 , 1.057 , 119.842 , 0
6.51 , 5.147 , 1.178 , 119.973 , 0
6.59 , 5.187 , 1.178 , 119.973 , 0
6.69 , 5.243 , 1.297 , 119.973 , 0
6.77 , 5.291 , 1.476 , 119.947 , 0
6.87 , 5.347 , 1.476 , 119.947 , 0
7.01 , 5.425 , 1.599 , 119.868 , 0
7.09 , 5.465 , 1.767 , 119.855 , 0
7.18 , 5.519 , 1.961 , 119.881 , 0
7.27 , 5.569 , 1.961 , 119.881 , 0
7.37 , 5.624 , 2.135 , 119.92 , 0
7.51 , 5.704 , 2.331 , 119.842 , 0
7.59 , 5.745 , 2.331 , 119.842 , 0
7.68 , 5.796 , 2.554 , 119.986 , 0
7.77 , 5.847 , 2.707 , 120.064 , 0
7.87 , 5.902 , 2.707 , 120.064 , 0
8.01 , 5.981 , 2.896 , 119.947 , 0
8.09 , 6.024 , 3.092 , 120.104 , 0
8.18 , 6.075 , 3.271 , 119.96 , 0
8.27 , 6.124 , 3.271 , 119.96 , 0
8.38 , 6.182 , 3.483 , 120.038 , 0
8.47 , 6.235 , 3.709 , 119.96 , 0
8.57 , 6.291 , 3.709 , 119.96 , 0
8.71 , 6.367 , 3.953 , 120.012 , 0
8.78 , 6.405 , 4.198 , 120.012 , 0
8.87 , 6.458 , 4.393 , 119.763 , 0
8.97 , 6.513 , 4.393 , 119.763 , 0
9.07 , 6.569 , 4.634 , 119.999 , 0
9.21 , 6.648 , 4.857 , 119.868 , 0
9.29 , 6.688 , 4.857 , 119.868 , 0
9.38 , 6.739 , 5.07 , 119.855 , 0
9.47 , 6.791 , 5.318 , 119.986 , 0
9.57 , 6.846 , 5.318 , 119.986 , 0
9.71 , 6.925 , 5.555 , 119.973 , 0
9.79 , 6.966 , 5.782 , 120.012 , 0
9.88 , 7.017 , 6.027 , 120.182 , 0
9.97 , 7.069 , 6.027 , 120.182 , 0
10.07 , 7.124 , 6.301 , 120.13 , 0
10.22 , 7.204 , 6.56 , 120.13 , 0
10.29 , 7.247 , 6.786 , 120.117 , 0
10.39 , 7.301 , 6.786 , 120.117 , 0
10.47 , 7.346 , 7.056 , 119.881 , 0
10.57 , 7.402 , 7.283 , 119.947 , 0
10.67 , 7.457 , 7.283 , 119.947 , 0
10.77 , 7.513 , 7.604 , 120.078 , 0
10.91 , 7.591 , 7.877 , 119.973 , 0
10.98 , 7.631 , 7.877 , 119.973 , 0
11.08 , 7.682 , 8.091 , 119.868 , 0
11.17 , 7.735 , 8.31 , 120.078 , 0
11.27 , 7.791 , 8.31 , 120.078 , 0
11.41 , 7.869 , 8.498 , 119.933 , 0
11.5 , 7.916 , 8.71 , 119.947 , 0
11.59 , 7.97 , 8.961 , 119.802 , 0
11.67 , 8.013 , 8.961 , 119.802 , 0
11.77 , 8.068 , 9.182 , 119.986 , 0
11.91 , 8.144 , 9.065 , 119.973 , 0
11.99 , 8.187 , 9.102 , 119.894 , 0
12.08 , 8.241 , 9.102 , 119.894 , 0
12.17 , 8.291 , 9.578 , 119.973 , 0
12.27 , 8.346 , 9.899 , 120.025 , 0
12.41 , 8.422 , 9.899 , 120.025 , 0
12.49 , 8.466 , 10.254 , 119.907 , 0
12.59 , 8.524 , 10.545 , 119.881 , 0
12.67 , 8.569 , 10.545 , 119.881 , 0
12.77 , 8.624 , 10.754 , 119.947 , 0
12.92 , 8.704 , 10.669 , 119.973 , 0
12.99 , 8.746 , 9.282 , 119.802 , 0
13.09 , 8.8 , 9.282 , 119.802 , 0
13.17 , 8.846 , 8.402 , 119.815 , 0
13.27 , 8.902 , 8.07 , 119.999 , 0
13.41 , 8.98 , 8.07 , 119.999 , 0
13.48 , 9.019 , 7.858 , 119.96 , 0
13.58 , 9.074 , 7.59 , 120.091 , 0
13.67 , 9.124 , 7.59 , 120.091 , 0
13.77 , 9.181 , 7.373 , 119.96 , 0
13.87 , 9.235 , 7.088 , 120.156 , 0
13.97 , 9.292 , 6.826 , 120.078 , 0
14.07 , 9.346 , 6.826 , 120.078 , 0
14.18 , 9.405 , 6.446 , 120.025 , 0
14.27 , 9.457 , 6.065 , 120.169 , 0
14.37 , 9.514 , 6.065 , 120.169 , 0
14.47 , 9.569 , 5.82 , 119.947 , 0
14.57 , 9.625 , 5.503 , 119.907 , 0
14.67 , 9.68 , 5.144 , 119.947 , 0
14.77 , 9.735 , 5.144 , 119.947 , 0
14.91 , 9.814 , 4.855 , 119.894 , 0
14.99 , 9.854 , 4.487 , 119.973 , 0
15.09 , 9.909 , 4.487 , 119.973 , 0
15.17 , 9.957 , 3.751 , 119.855 , 0
15.28 , 10.014 , 3.388 , 119.868 , 0
15.37 , 10.069 , 3.388 , 119.868 , 0
15.47 , 10.124 , 3.251 , 120.091 , 0
15.61 , 10.203 , 3.096 , 119.776 , 0
15.69 , 10.245 , 2.988 , 120.012 , 0
15.79 , 10.303 , 2.988 , 120.012 , 0
15.87 , 10.348 , 2.907 , 119.763 , 0
15.97 , 10.403 , 2.826 , 119.802 , 0
16.07 , 10.457 , 2.826 , 119.802 , 0
16.17 , 10.513 , 2.711 , 119.907 , 0
16.31 , 10.589 , 2.641 , 119.855 , 0
16.39 , 10.633 , 2.503 , 119.855 , 0
16.49 , 10.69 , 2.503 , 119.855 , 0
16.57 , 10.735 , 2.399 , 119.658 , 0
16.67 , 10.791 , 2.299 , 120.051 , 0
16.77 , 10.846 , 2.299 , 120.051 , 0
16.88 , 10.904 , 2.214 , 119.829 , 0
16.97 , 10.958 , 2.156 , 119.986 , 0
17.07 , 11.013 , 2.156 , 119.986 , 0
17.21 , 11.089 , 2.114 , 119.894 , 0
17.29 , 11.133 , 2.093 , 119.999 , 0
17.38 , 11.186 , 2.061 , 119.947 , 0
17.47 , 11.235 , 2.061 , 119.947 , 0
17.57 , 11.291 , 2.018 , 119.868 , 0
17.67 , 11.346 , 1.961 , 119.999 , 0
17.77 , 11.402 , 1.961 , 119.999 , 0
17.91 , 11.479 , 1.937 , 119.881 , 0
17.98 , 11.518 , 1.899 , 119.881 , 0
18.09 , 11.576 , 1.878 , 119.881 , 0
18.17 , 11.624 , 1.878 , 119.881 , 0
18.27 , 11.681 , 1.844 , 119.96 , 0
18.37 , 11.735 , 1.812 , 119.789 , 0
18.47 , 11.791 , 1.812 , 119.789 , 0
18.57 , 11.846 , 1.786 , 119.737 , 0
18.68 , 11.905 , 1.733 , 120.012 , 0
18.77 , 11.957 , 1.691 , 119.855 , 0
18.87 , 12.014 , 1.691 , 119.855 , 0
18.97 , 12.068 , 1.682 , 119.986 , 0
19.07 , 12.125 , 1.654 , 119.92 , 0
19.17 , 12.18 , 1.654 , 119.92 , 0
19.27 , 12.236 , 1.601 , 119.829 , 0
19.37 , 12.29 , 1.576 , 119.96 , 0
19.47 , 12.346 , 1.576 , 119.96 , 0
19.61 , 12.422 , 1.508 , 119.92 , 0
19.69 , 12.468 , 1.476 , 119.815 , 0
19.79 , 12.525 , 1.463 , 120.051 , 0
19.87 , 12.568 , 1.463 , 120.051 , 0
19.97 , 12.624 , 1.429 , 119.881 , 0
20.11 , 12.7 , 1.412 , 120.038 , 0
20.18 , 12.739 , 1.412 , 120.038 , 0
20.28 , 12.795 , 1.389 , 119.75 , 0
20.37 , 12.846 , 1.321 , 119.947 , 0
20.48 , 12.905 , 1.31 , 119.855 , 0
20.57 , 12.958 , 1.31 , 119.855 , 0
20.67 , 13.013 , 1.27 , 119.737 , 0
20.81 , 13.091 , 1.274 , 120.025 , 0
20.88 , 13.131 , 1.274 , 120.025 , 0
20.99 , 13.188 , 1.244 , 119.933 , 0
21.07 , 13.235 , 1.202 , 119.973 , 0
21.17 , 13.291 , 1.202 , 119.973 , 0
21.31 , 13.37 , 1.146 , 119.973 , 0
21.39 , 13.414 , 1.121 , 119.973 , 0
21.49 , 13.465 , 1.093 , 119.933 , 0
21.57 , 13.513 , 1.093 , 119.933 , 0
21.68 , 13.571 , 1.085 , 119.973 , 0
21.77 , 13.624 , 1.057 , 119.92 , 0
21.87 , 13.68 , 1.057 , 119.92 , 0
22.01 , 13.756 , 1.061 , 119.894 , 0
22.08 , 13.796 , 1.059 , 119.868 , 0
22.19 , 13.854 , 1.068 , 119.855 , 0
22.27 , 13.903 , 1.068 , 119.855 , 0
22.38 , 13.96 , 1.059 , 119.842 , 0
22.47 , 14.013 , 1.065 , 119.973 , 0
22.57 , 14.068 , 1.065 , 119.973 , 0
22.71 , 14.146 , 1.074 , 119.933 , 0
22.79 , 14.19 , 1.059 , 120.064 , 0
22.89 , 14.248 , 1.059 , 120.064 , 0
22.97 , 14.29 , 1.072 , 119.894 , 0
23.07 , 14.346 , 1.046 , 119.933 , 0
23.21 , 14.425 , 1.027 , 119.947 , 0
23.29 , 14.467 , 1.027 , 119.947 , 0
23.39 , 14.525 , 0.991 , 119.96 , 0
23.48 , 14.572 , 0.959 , 119.894 , 0
23.57 , 14.624 , 0.959 , 119.894 , 0
23.72 , 14.704 , 0.927 , 119.92 , 0
23.8 , 14.749 , 0.908 , 119.737 , 0
23.9 , 14.805 , 0.874 , 119.802 , 0
23.97 , 14.847 , 0.874 , 119.802 , 0
24.07 , 14.902 , 0.823 , 119.868 , 0
24.22 , 14.983 , 0.787 , 119.999 , 0
24.29 , 15.025 , 0.757 , 119.868 , 0
24.39 , 15.076 , 0.757 , 119.868 , 0
24.47 , 15.124 , 0.755 , 119.789 , 0
24.57 , 15.18 , 0.738 , 119.711 , 0
24.71 , 15.257 , 0.738 , 119.711 , 0
24.79 , 15.301 , 0.723 , 119.881 , 0
24.89 , 15.353 , 0.712 , 119.75 , 0
24.97 , 15.402 , 0.712 , 119.75 , 0
25.07 , 15.457 , 0.712 , 120.091 , 0
25.17 , 15.513 , 0.693 , 119.855 , 0
25.27 , 15.568 , 0.693 , 119.855 , 0
25.42 , 15.649 , 0.689 , 119.894 , 0
25.49 , 15.692 , 0.689 , 119.96 , 0
25.6 , 15.75 , 0.672 , 119.842 , 0
25.68 , 15.798 , 0.672 , 119.842 , 0
25.78 , 15.853 , 0.655 , 119.698 , 0
25.87 , 15.902 , 0.661 , 119.907 , 0
25.97 , 15.957 , 0.661 , 119.907 , 0
26.07 , 16.013 , 0.674 , 119.868 , 0
26.18 , 16.072 , 0.655 , 119.96 , 0
26.27 , 16.124 , 0.651 , 119.999 , 0
26.37 , 16.179 , 0.651 , 119.999 , 0
26.52 , 16.259 , 0.629 , 119.894 , 0
26.59 , 16.303 , 0.629 , 119.933 , 0
26.69 , 16.354 , 0.629 , 119.933 , 0
26.77 , 16.402 , 0.602 , 119.907 , 0
26.87 , 16.458 , 0.587 , 119.894 , 0
27.01 , 16.534 , 0.587 , 119.894 , 0
27.08 , 16.574 , 0.583 , 119.986 , 0
27.19 , 16.631 , 0.564 , 119.802 , 0
27.27 , 16.68 , 0.542 , 119.868 , 0
27.38 , 16.737 , 0.542 , 119.868 , 0
27.47 , 16.791 , 0.527 , 119.96 , 0
27.57 , 16.846 , 0.53 , 119.907 , 0
27.71 , 16.925 , 0.53 , 119.907 , 0
27.79 , 16.966 , 0.495 , 119.868 , 0
27.89 , 17.024 , 0.483 , 120.038 , 0
27.98 , 17.072 , 0.483 , 119.815 , 0
28.07 , 17.124 , 0.483 , 119.815 , 0
28.17 , 17.18 , 0.468 , 119.894 , 0
28.27 , 17.235 , 0.442 , 119.763 , 0
28.42 , 17.315 , 0.442 , 119.763 , 0
28.49 , 17.359 , 0.421 , 119.815 , 0
28.6 , 17.418 , 0.398 , 119.96 , 0
28.68 , 17.463 , 0.408 , 120.012 , 0
28.79 , 17.522 , 0.408 , 120.012 , 0
28.87 , 17.569 , 0.41 , 119.776 , 0
28.97 , 17.624 , 0.379 , 119.881 , 0
29.11 , 17.702 , 0.379 , 119.881 , 0
29.19 , 17.746 , 0.379 , 120.064 , 0
29.3 , 17.805 , 0.338 , 119.986 , 0
29.38 , 17.853 , 0.347 , 119.999 , 0
29.49 , 17.911 , 0.347 , 119.999 , 0
29.58 , 17.962 , 0.345 , 119.92 , 0
29.68 , 18.015 , 0.328 , 120.064 , 0
29.77 , 18.068 , 0.328 , 120.064 , 0
29.87 , 18.125 , 0.328 , 119.986 , 0
29.97 , 18.18 , 0.3 , 119.868 , 0
30.07 , 18.235 , 0.3 , 119.868 , 0
30.17 , 18.291 , 0.287 , 119.907 , 0
30.28 , 18.349 , 0.27 , 120.025 , 0
30.37 , 18.402 , 0.264 , 119.894 , 0
30.48 , 18.459 , 0.264 , 119.894 , 0
30.57 , 18.513 , 0.238 , 119.92 , 0
30.68 , 18.573 , 0.253 , 119.855 , 0
30.77 , 18.624 , 0.253 , 119.855 , 0
30.88 , 18.684 , 0.213 , 120.117 , 0
30.97 , 18.735 , 0.223 , 120.078 , 0
31.07 , 18.792 , 0.223 , 120.078 , 0
31.17 , 18.846 , 0.213 , 120.038 , 0
31.27 , 18.902 , 0.206 , 119.907 , 0
31.42 , 18.982 , 0.183 , 119.999 , 0
31.5 , 19.03 , 0.179 , 120.078 , 0
31.61 , 19.088 , 0.179 , 120.078 , 0
31.7 , 19.139 , 0.16 , 119.973 , 0
31.8 , 19.193 , 0.16 , 119.973 , 0
31.88 , 19.237 , 0.168 , 119.933 , 0
31.97 , 19.292 , 0.147 , 120.012 , 0
32.07 , 19.346 , 0.145 , 120.117 , 0
32.17 , 19.403 , 0.145 , 120.117 , 0
32.27 , 19.457 , 0.132 , 120.104 , 0
32.38 , 19.515 , 0.132 , 119.829 , 0
32.47 , 19.568 , 0.132 , 119.829 , 0
32.58 , 19.626 , 0.119 , 120.156 , 0
32.67 , 19.68 , 0.119 , 119.999 , 0
32.78 , 19.739 , 0.119 , 119.999 , 0
32.87 , 19.791 , 0.108 , 120.051 , 0
32.97 , 19.848 , 0.1 , 120.051 , 0
33.07 , 19.902 , 0.089 , 120.051 , 0
33.17 , 19.958 , 0.089 , 120.051 , 0
33.27 , 20.013 , 0.085 , 120.038 , 0
33.37 , 20.069 , 0.096 , 120.078 , 0
33.47 , 20.124 , 0.096 , 120.078 , 0
33.58 , 20.185 , 0.079 , 119.973 , 0
33.67 , 20.235 , 0.094 , 119.973 , 0
33.77 , 20.292 , 0.085 , 120.117 , 0
33.87 , 20.346 , 0.085 , 120.117 , 0
33.97 , 20.401 , 0.074 , 120.13 , 0
34.11 , 20.481 , 0.051 , 119.947 , 0
34.19 , 20.525 , 0.062 , 120.169 , 0
34.29 , 20.578 , 0.062 , 120.169 , 0
34.37 , 20.624 , 0.062 , 120.012 , 0
34.48 , 20.684 , 0.072 , 119.933 , 0
34.57 , 20.735 , 0.072 , 119.933 , 0
34.68 , 20.792 , 0.068 , 120.104 , 0
34.77 , 20.846 , 0.055 , 119.973 , 0
34.87 , 20.902 , 0.055 , 119.973 , 0
35.02 , 20.983 , 0.064 , 120.104 , 0
35.09 , 21.025 , 0.055 , 119.96 , 0
35.2 , 21.084 , 0.07 , 120.064 , 0
35.29 , 21.132 , 0.07 , 120.064 , 0
35.38 , 21.184 , 0.045 , 120.078 , 0
35.48 , 21.237 , 0.062 , 120.209 , 0
35.57 , 21.291 , 0.062 , 120.209 , 0
35.67 , 21.346 , 0.032 , 120.366 , 0
35.78 , 21.407 , 0.047 , 120.012 , 0
35.87 , 21.457 , 0.047 , 120.012 , 0
35.97 , 21.513 , 0.049 , 119.842 , 0
36.07 , 21.569 , 0.053 , 120.091 , 0
36.17 , 21.625 , 0.049 , 120.209 , 0
36.27 , 21.679 , 0.049 , 120.209 , 0
36.37 , 21.735 , 0.043 , 119.986 , 0
36.52 , 21.815 , 0.038 , 120.064 , 0
36.59 , 21.859 , 0.038 , 120.064 , 0
36.7 , 21.918 , 0.047 , 120.038 , 0
36.8 , 21.97 , 0.045 , 120.038 , 0
36.89 , 22.023 , 0.036 , 120.117 , 0
36.97 , 22.069 , 0.036 , 120.117 , 0
37.08 , 22.127 , 0.019 , 120.13 , 0
37.17 , 22.179 , 0.038 , 120.13 , 0
37.27 , 22.235 , 0.038 , 120.13 , 0
37.37 , 22.291 , 0.03 , 119.96 , 0
37.48 , 22.351 , 0.032 , 120.274 , 0
37.57 , 22.402 , 0.032 , 120.274 , 0
37.67 , 22.457 , 0.015 , 119.999 , 0
37.81 , 22.535 , 0.019 , 120.156 , 0
37.9 , 22.582 , 0.034 , 120.169 , 0
37.99 , 22.635 , 0.034 , 120.169 , 0
38.07 , 22.68 , 0.015 , 119.947 , 0
38.17 , 22.735 , 0.023 , 120.064 , 0
38.27 , 22.79 , 0.023 , 120.064 , 0
38.38 , 22.852 , 0.028 , 120.182 , 0
38.47 , 22.902 , 0.021 , 119.986 , 0
38.57 , 22.957 , 0.043 , 120.038 , 0
38.67 , 23.013 , 0.043 , 120.038 , 0
38.78 , 23.07 , 0.023 , 120.012 , 0
38.87 , 23.124 , 0.034 , 120.169 , 0
38.98 , 23.185 , 0.034 , 120.169 , 0
39.07 , 23.235 , 0.017 , 119.92 , 0
39.17 , 23.291 , 0.023 , 120.156 , 0
39.27 , 23.346 , 0.023 , 120.156 , 0
39.37 , 23.402 , 0.015 , 119.894 , 0
39.51 , 23.48 , 0.023 , 119.933 , 0
39.59 , 23.521 , 0.011 , 120.012 , 0
39.69 , 23.578 , 0.011 , 120.012 , 0
39.77 , 23.624 , 0.026 , 119.999 , 0
39.88 , 23.681 , 0.017 , 120.025 , 0
39.97 , 23.735 , 0.017 , 120.025 , 0
40.07 , 23.791 , 0.026 , 120.078 , 0
40.17 , 23.846 , 0.019 , 120.196 , 0
40.28 , 23.903 , 0.019 , 120.038 , 0
40.37 , 23.957 , 0.019 , 120.038 , 0
40.47 , 24.013 , 0.023 , 120.025 , 0
40.61 , 24.089 , 0.015 , 119.947 , 0
40.7 , 24.139 , 0.019 , 120.117 , 0
40.79 , 24.191 , 0.019 , 120.117 , 0
40.87 , 24.236 , 0.013 , 120.104 , 0
40.98 , 24.295 , 0.013 , 120.104 , 0
41.07 , 24.346 , 0.015 , 120.038 , 0
41.17 , 24.402 , 0.015 , 120.13 , 0
41.27 , 24.457 , 0.009 , 120.064 , 0
41.37 , 24.513 , 0.009 , 120.064 , 0
41.47 , 24.568 , 0.017 , 120.143 , 0
41.57 , 24.624 , 0.019 , 120.104 , 0
41.71 , 24.701 , 0.019 , 120.104 , 0
41.79 , 24.747 , 0.011 , 119.96 , 0
41.89 , 24.798 , 0.0 , 120.051 , 0
41.97 , 24.846 , 0.013 , 120.143 , 0
42.07 , 24.901 , 0.013 , 120.143 , 0
42.21 , 24.979 , 0.017 , 120.038 , 0
42.31 , 25.033 , 0.006 , 120.117 , 0
42.41 , 25.092 , 0.011 , 120.091 , 0
42.5 , 25.137 , 0.011 , 120.091 , 0
42.59 , 25.189 , 0.0 , 120.064 , 0
42.67 , 25.235 , 0.0 , 120.064 , 0
42.77 , 25.29 , 0.006 , 120.104 , 0
42.91 , 25.369 , 0.026 , 120.064 , 0
43.0 , 25.414 , 0.032 , 120.353 , 0
43.09 , 25.468 , 0.032 , 120.353 , 0
43.18 , 25.515 , 0.013 , 120.064 , 0
43.27 , 25.569 , 0.015 , 120.248 , 0
43.37 , 25.624 , 0.015 , 120.248 , 0
43.47 , 25.68 , -0.013 , 120.222 , 0
43.57 , 25.735 , 0.017 , 120.143 , 0
