caro_long_IV
long
Time , Disp, Load , Pressure, Volume
0.11 , 0.029 , 0.015 , 118.544 , 0
0.19 , 0.074 , 0.015 , 118.715 , 0
0.29 , 0.127 , 0.015 , 118.715 , 0
0.37 , 0.174 , 0.002 , 118.688 , 0
0.47 , 0.229 , 0.013 , 118.57 , 0
0.61 , 0.308 , 0.013 , 118.57 , 0
0.68 , 0.346 , 0.013 , 118.584 , 0
0.78 , 0.4 , 0.006 , 118.767 , 0
0.87 , 0.452 , 0.006 , 118.767 , 0
0.97 , 0.507 , 0.017 , 118.57 , 0
1.07 , 0.563 , 0.021 , 118.688 , 0
1.17 , 0.619 , 0.021 , 118.688 , 0
1.27 , 0.674 , -0.0 , 118.57 , 0
1.37 , 0.732 , 0.011 , 118.846 , 0
1.47 , 0.785 , -0.002 , 118.701 , 0
1.57 , 0.841 , -0.002 , 118.701 , 0
1.67 , 0.896 , -0.004 , 118.531 , 0
1.78 , 0.955 , -0.011 , 118.885 , 0
1.87 , 1.007 , -0.011 , 118.885 , 0
1.97 , 1.063 , 0.017 , 118.675 , 0
2.07 , 1.118 , 0.011 , 118.466 , 0
2.17 , 1.174 , -0.0 , 118.597 , 0
2.31 , 1.251 , -0.0 , 118.597 , 0
2.38 , 1.292 , 0.004 , 118.675 , 0
2.48 , 1.346 , 0.004 , 118.662 , 0
2.57 , 1.396 , 0.004 , 118.662 , 0
2.67 , 1.452 , 0.017 , 118.806 , 0
2.81 , 1.53 , -0.002 , 118.57 , 0
2.88 , 1.571 , 0.015 , 118.505 , 0
2.98 , 1.625 , 0.015 , 118.505 , 0
3.07 , 1.674 , 0.021 , 118.584 , 0
3.17 , 1.729 , 0.004 , 118.61 , 0
3.31 , 1.806 , 0.004 , 118.61 , 0
3.38 , 1.846 , 0.015 , 118.636 , 0
3.48 , 1.899 , 0.002 , 118.649 , 0
3.57 , 1.952 , 0.002 , 118.649 , 0
3.67 , 2.007 , 0.011 , 118.675 , 0
3.81 , 2.085 , 0.019 , 118.701 , 0
3.88 , 2.122 , 0.034 , 118.518 , 0
3.97 , 2.176 , 0.034 , 118.518 , 0
4.07 , 2.23 , 0.045 , 118.715 , 0
4.17 , 2.285 , 0.062 , 118.649 , 0
4.31 , 2.363 , 0.062 , 118.649 , 0
4.38 , 2.403 , 0.108 , 118.937 , 0
4.48 , 2.455 , 0.145 , 118.715 , 0
4.57 , 2.508 , 0.219 , 118.662 , 0
4.67 , 2.563 , 0.219 , 118.662 , 0
4.81 , 2.641 , 0.338 , 118.701 , 0
4.88 , 2.681 , 0.432 , 118.662 , 0
4.98 , 2.737 , 0.432 , 118.662 , 0
5.07 , 2.785 , 0.568 , 118.636 , 0
5.17 , 2.841 , 0.691 , 118.61 , 0
5.31 , 2.918 , 0.691 , 118.61 , 0
5.38 , 2.956 , 0.842 , 118.859 , 0
5.47 , 3.008 , 1.057 , 118.636 , 0
5.57 , 3.063 , 1.242 , 118.675 , 0
5.67 , 3.118 , 1.242 , 118.675 , 0
5.81 , 3.194 , 1.465 , 118.649 , 0
5.88 , 3.237 , 1.761 , 118.728 , 0
5.98 , 3.293 , 1.761 , 118.728 , 0
6.07 , 3.341 , 2.012 , 118.701 , 0
6.17 , 3.396 , 2.239 , 118.623 , 0
6.31 , 3.476 , 2.59 , 118.819 , 0
6.38 , 3.515 , 2.59 , 118.819 , 0
6.48 , 3.568 , 2.856 , 118.662 , 0
6.57 , 3.618 , 3.128 , 118.688 , 0
6.67 , 3.674 , 3.128 , 118.688 , 0
6.81 , 3.752 , 3.505 , 118.557 , 0
6.89 , 3.794 , 3.804 , 118.557 , 0
6.98 , 3.848 , 3.804 , 118.557 , 0
7.07 , 3.896 , 4.094 , 118.767 , 0
7.17 , 3.953 , 4.468 , 118.557 , 0
7.27 , 4.007 , 4.797 , 118.715 , 0
7.37 , 4.063 , 4.797 , 118.715 , 0
7.51 , 4.141 , 5.102 , 118.518 , 0
7.59 , 4.183 , 5.452 , 118.741 , 0
7.69 , 4.238 , 5.452 , 118.741 , 0
7.77 , 4.285 , 5.78 , 118.819 , 0
7.87 , 4.341 , 6.08 , 118.662 , 0
7.97 , 4.396 , 6.341 , 118.531 , 0
8.07 , 4.451 , 6.341 , 118.531 , 0
8.21 , 4.53 , 6.095 , 118.649 , 0
8.28 , 4.571 , 5.076 , 118.426 , 0
8.38 , 4.625 , 5.076 , 118.426 , 0
8.47 , 4.674 , 4.142 , 118.505 , 0
8.57 , 4.73 , 3.19 , 118.675 , 0
8.71 , 4.808 , 3.19 , 118.675 , 0
8.78 , 4.846 , 2.141 , 118.649 , 0
8.87 , 4.899 , 1.661 , 118.623 , 0
8.97 , 4.952 , 1.486 , 118.518 , 0
9.07 , 5.007 , 1.486 , 118.518 , 0
9.22 , 5.088 , 1.421 , 118.728 , 0
9.29 , 5.127 , 1.342 , 118.636 , 0
9.38 , 5.18 , 1.342 , 118.636 , 0
9.47 , 5.23 , 1.295 , 118.688 , 0
9.57 , 5.285 , 1.25 , 118.544 , 0
9.67 , 5.34 , 1.178 , 118.662 , 0
9.77 , 5.397 , 1.178 , 118.662 , 0
9.87 , 5.452 , 1.065 , 118.675 , 0
9.97 , 5.507 , 0.923 , 118.636 , 0
10.11 , 5.587 , 0.923 , 118.636 , 0
10.18 , 5.627 , 0.836 , 118.623 , 0
10.28 , 5.679 , 0.757 , 118.662 , 0
10.37 , 5.729 , 0.661 , 118.452 , 0
10.47 , 5.785 , 0.661 , 118.452 , 0
10.61 , 5.865 , 0.583 , 118.649 , 0
10.69 , 5.905 , 0.534 , 118.767 , 0
10.78 , 5.959 , 0.534 , 118.767 , 0
10.87 , 6.007 , 0.521 , 118.636 , 0
10.97 , 6.063 , 0.474 , 118.662 , 0
11.11 , 6.142 , 0.474 , 118.662 , 0
11.18 , 6.18 , 0.449 , 118.531 , 0
11.28 , 6.234 , 0.419 , 118.728 , 0
11.37 , 6.285 , 0.344 , 118.662 , 0
11.47 , 6.341 , 0.344 , 118.662 , 0
11.61 , 6.421 , 0.225 , 118.61 , 0
11.69 , 6.461 , 0.111 , 118.649 , 0
11.79 , 6.516 , 0.111 , 118.649 , 0
11.87 , 6.563 , 0.083 , 118.636 , 0
11.97 , 6.618 , 0.104 , 118.584 , 0
12.11 , 6.697 , 0.089 , 118.623 , 0
12.19 , 6.74 , 0.089 , 118.623 , 0
12.29 , 6.795 , 0.066 , 118.544 , 0
12.37 , 6.84 , 0.043 , 118.479 , 0
12.47 , 6.896 , 0.043 , 118.479 , 0
12.61 , 6.972 , 0.045 , 118.649 , 0
12.68 , 7.013 , 0.04 , 118.61 , 0
12.78 , 7.068 , 0.034 , 118.584 , 0
12.87 , 7.118 , 0.034 , 118.584 , 0
12.98 , 7.177 , 0.047 , 118.715 , 0
13.07 , 7.23 , 0.038 , 118.479 , 0
13.17 , 7.285 , 0.038 , 118.479 , 0
13.31 , 7.365 , 0.043 , 118.557 , 0
13.38 , 7.404 , 0.028 , 118.662 , 0
13.48 , 7.458 , 0.028 , 118.662 , 0
13.57 , 7.507 , 0.045 , 118.649 , 0
13.67 , 7.563 , 0.068 , 118.649 , 0
13.81 , 7.643 , 0.051 , 118.649 , 0
13.89 , 7.685 , 0.051 , 118.649 , 0
13.98 , 7.737 , 0.068 , 118.662 , 0
14.07 , 7.785 , 0.074 , 118.701 , 0
14.17 , 7.841 , 0.074 , 118.701 , 0
14.31 , 7.918 , 0.072 , 118.806 , 0
14.38 , 7.957 , 0.064 , 118.413 , 0
14.48 , 8.012 , 0.057 , 118.597 , 0
14.57 , 8.063 , 0.057 , 118.597 , 0
14.67 , 8.118 , 0.057 , 118.518 , 0
14.81 , 8.199 , 0.051 , 118.57 , 0
14.89 , 8.238 , 0.051 , 118.57 , 0
14.99 , 8.293 , 0.053 , 118.623 , 0
15.07 , 8.341 , 0.055 , 118.57 , 0
15.17 , 8.397 , 0.055 , 118.57 , 0
15.27 , 8.452 , 0.053 , 118.636 , 0
15.37 , 8.507 , 0.051 , 118.675 , 0
15.51 , 8.587 , 0.028 , 118.597 , 0
15.58 , 8.626 , 0.028 , 118.597 , 0
15.68 , 8.677 , 0.021 , 118.806 , 0
15.77 , 8.729 , 0.019 , 118.584 , 0
15.91 , 8.805 , 0.049 , 118.728 , 0
15.98 , 8.846 , 0.049 , 118.728 , 0
16.09 , 8.904 , 0.002 , 118.479 , 0
16.17 , 8.952 , 0.009 , 118.662 , 0
16.27 , 9.007 , 0.009 , 118.662 , 0
16.41 , 9.083 , 0.011 , 118.623 , 0
16.48 , 9.123 , 0.011 , 118.701 , 0
16.57 , 9.174 , 0.011 , 118.701 , 0
16.67 , 9.229 , 0.028 , 118.701 , 0
16.77 , 9.285 , 0.021 , 118.715 , 0
16.91 , 9.364 , 0.021 , 118.715 , 0
16.99 , 9.405 , 0.019 , 118.649 , 0
17.09 , 9.461 , 0.013 , 118.688 , 0
17.17 , 9.507 , 0.011 , 118.57 , 0
17.27 , 9.563 , 0.011 , 118.57 , 0
