caro_circ_I
circ
Time , Disp, Load , Pressure, Volume
0.07 , 0.005 , -0.23 , 122.974 , 0
0.16 , 0.058 , -0.204 , 123.0 , 0
0.26 , 0.11 , -0.228 , 122.856 , 0
0.35 , 0.162 , -0.228 , 122.856 , 0
0.44 , 0.211 , -0.2 , 122.856 , 0
0.54 , 0.267 , -0.213 , 122.935 , 0
0.68 , 0.345 , -0.213 , 122.935 , 0
0.74 , 0.381 , -0.174 , 122.935 , 0
0.84 , 0.434 , -0.255 , 122.882 , 0
0.94 , 0.489 , -0.255 , 122.882 , 0
1.04 , 0.544 , -0.213 , 122.909 , 0
1.18 , 0.623 , -0.138 , 122.804 , 0
1.25 , 0.665 , -0.094 , 123.066 , 0
1.35 , 0.72 , -0.094 , 123.066 , 0
1.44 , 0.767 , -0.066 , 122.922 , 0
1.54 , 0.822 , -0.125 , 122.961 , 0
1.68 , 0.902 , -0.125 , 122.961 , 0
1.75 , 0.941 , -0.151 , 123.026 , 0
1.85 , 0.995 , -0.043 , 122.961 , 0
1.94 , 1.044 , -0.043 , 122.961 , 0
2.04 , 1.1 , 0.0 , 123.04 , 0
2.18 , 1.178 , 0.104 , 123.131 , 0
2.25 , 1.219 , 0.151 , 122.935 , 0
2.35 , 1.274 , 0.151 , 122.935 , 0
2.44 , 1.322 , 0.208 , 123.026 , 0
2.54 , 1.377 , 0.242 , 123.013 , 0
2.68 , 1.457 , 0.242 , 123.013 , 0
2.75 , 1.495 , 0.245 , 122.909 , 0
2.85 , 1.551 , 0.242 , 122.935 , 0
2.94 , 1.6 , 0.306 , 122.83 , 0
3.04 , 1.655 , 0.306 , 122.83 , 0
3.18 , 1.733 , 0.327 , 122.935 , 0
3.25 , 1.773 , 0.296 , 123.0 , 0
3.35 , 1.83 , 0.296 , 123.0 , 0
3.44 , 1.877 , 0.342 , 123.04 , 0
3.54 , 1.933 , 0.364 , 122.83 , 0
3.64 , 1.988 , 0.364 , 122.83 , 0
3.74 , 2.045 , 0.379 , 122.882 , 0
3.84 , 2.1 , 0.461 , 122.843 , 0
3.94 , 2.156 , 0.451 , 122.948 , 0
4.08 , 2.234 , 0.451 , 122.948 , 0
4.15 , 2.272 , 0.451 , 123.0 , 0
4.25 , 2.329 , 0.485 , 122.935 , 0
4.34 , 2.377 , 0.485 , 122.935 , 0
4.44 , 2.433 , 0.51 , 122.987 , 0
4.58 , 2.51 , 0.534 , 123.105 , 0
4.65 , 2.55 , 0.557 , 122.961 , 0
4.75 , 2.605 , 0.557 , 122.961 , 0
4.84 , 2.655 , 0.578 , 123.026 , 0
4.94 , 2.711 , 0.589 , 123.013 , 0
5.08 , 2.787 , 0.589 , 123.013 , 0
5.15 , 2.827 , 0.627 , 123.013 , 0
5.25 , 2.883 , 0.661 , 122.948 , 0
5.34 , 2.933 , 0.661 , 122.948 , 0
5.44 , 2.989 , 0.689 , 122.961 , 0
5.58 , 3.066 , 0.749 , 122.909 , 0
5.65 , 3.106 , 0.791 , 122.961 , 0
5.74 , 3.157 , 0.791 , 122.961 , 0
5.84 , 3.211 , 0.827 , 122.869 , 0
5.94 , 3.267 , 0.87 , 122.895 , 0
6.04 , 3.322 , 0.87 , 122.895 , 0
6.14 , 3.38 , 0.972 , 123.0 , 0
6.24 , 3.433 , 0.993 , 122.895 , 0
6.34 , 3.489 , 1.076 , 123.053 , 0
6.44 , 3.544 , 1.076 , 123.053 , 0
6.54 , 3.6 , 1.174 , 123.105 , 0
6.68 , 3.676 , 1.257 , 122.987 , 0
6.75 , 3.716 , 1.257 , 122.987 , 0
6.85 , 3.773 , 1.389 , 122.83 , 0
6.94 , 3.822 , 1.527 , 122.922 , 0
7.04 , 3.878 , 1.527 , 122.922 , 0
7.18 , 3.955 , 1.635 , 123.131 , 0
7.25 , 3.997 , 1.757 , 122.895 , 0
7.35 , 4.052 , 1.91 , 122.987 , 0
7.44 , 4.1 , 1.91 , 122.987 , 0
7.54 , 4.155 , 2.063 , 122.935 , 0
7.67 , 4.231 , 2.209 , 122.948 , 0
7.75 , 4.275 , 2.409 , 122.974 , 0
7.85 , 4.328 , 2.409 , 122.974 , 0
7.94 , 4.378 , 2.52 , 122.948 , 0
8.04 , 4.433 , 2.701 , 123.131 , 0
8.18 , 4.512 , 2.701 , 123.131 , 0
8.25 , 4.55 , 2.86 , 123.118 , 0
8.35 , 4.604 , 3.02 , 123.0 , 0
8.44 , 4.655 , 3.02 , 123.0 , 0
8.54 , 4.711 , 3.226 , 122.895 , 0
8.68 , 4.791 , 3.402 , 122.895 , 0
8.76 , 4.832 , 3.575 , 123.184 , 0
8.85 , 4.885 , 3.575 , 123.184 , 0
8.94 , 4.933 , 3.787 , 122.817 , 0
9.04 , 4.988 , 3.953 , 123.026 , 0
9.18 , 5.067 , 3.953 , 123.026 , 0
9.24 , 5.103 , 4.183 , 123.079 , 0
9.34 , 5.158 , 4.368 , 123.026 , 0
9.44 , 5.211 , 4.368 , 123.026 , 0
9.54 , 5.266 , 4.598 , 123.0 , 0
9.68 , 5.343 , 4.808 , 123.079 , 0
9.75 , 5.385 , 5.036 , 122.843 , 0
9.85 , 5.44 , 5.036 , 122.843 , 0
9.94 , 5.489 , 5.259 , 122.948 , 0
10.04 , 5.544 , 5.514 , 122.791 , 0
10.18 , 5.623 , 5.514 , 122.791 , 0
10.25 , 5.659 , 5.742 , 123.066 , 0
10.34 , 5.711 , 5.946 , 123.079 , 0
10.48 , 5.791 , 6.201 , 122.909 , 0
10.55 , 5.831 , 6.201 , 122.909 , 0
10.65 , 5.886 , 6.471 , 123.184 , 0
10.74 , 5.933 , 6.639 , 122.948 , 0
10.84 , 5.989 , 6.639 , 122.948 , 0
10.98 , 6.067 , 6.86 , 123.04 , 0
11.05 , 6.109 , 7.069 , 122.974 , 0
11.15 , 6.162 , 7.241 , 122.882 , 0
11.24 , 6.211 , 7.241 , 122.882 , 0
11.34 , 6.266 , 7.422 , 123.092 , 0
11.48 , 6.347 , 7.573 , 123.105 , 0
11.56 , 6.388 , 7.573 , 123.105 , 0
11.65 , 6.44 , 7.647 , 123.315 , 0
11.74 , 6.488 , 7.909 , 122.961 , 0
11.84 , 6.544 , 7.909 , 122.961 , 0
11.97 , 6.619 , 8.232 , 122.987 , 0
12.04 , 6.658 , 8.43 , 123.079 , 0
12.14 , 6.713 , 8.549 , 123.079 , 0
12.24 , 6.766 , 8.549 , 123.079 , 0
12.34 , 6.822 , 8.706 , 123.013 , 0
12.48 , 6.9 , 8.71 , 122.987 , 0
12.55 , 6.94 , 8.71 , 122.987 , 0
12.65 , 6.994 , 8.736 , 123.092 , 0
12.74 , 7.044 , 8.729 , 122.922 , 0
12.84 , 7.101 , 8.606 , 123.105 , 0
12.94 , 7.155 , 8.606 , 123.105 , 0
13.04 , 7.211 , 8.481 , 122.961 , 0
13.17 , 7.285 , 8.44 , 123.04 , 0
13.25 , 7.327 , 8.44 , 123.04 , 0
13.34 , 7.377 , 8.353 , 123.079 , 0
13.44 , 7.433 , 8.117 , 123.118 , 0
13.54 , 7.49 , 8.117 , 123.118 , 0
13.64 , 7.544 , 7.957 , 123.236 , 0
13.74 , 7.601 , 7.919 , 123.026 , 0
13.84 , 7.655 , 7.787 , 123.249 , 0
13.94 , 7.712 , 7.787 , 123.249 , 0
14.04 , 7.766 , 7.471 , 122.987 , 0
14.14 , 7.822 , 7.337 , 123.158 , 0
14.28 , 7.901 , 7.337 , 123.158 , 0
14.36 , 7.942 , 7.283 , 123.158 , 0
14.46 , 8.0 , 7.251 , 123.118 , 0
14.54 , 8.044 , 7.203 , 123.013 , 0
14.64 , 8.1 , 7.203 , 123.013 , 0
14.74 , 8.155 , 7.179 , 123.013 , 0
14.84 , 8.211 , 6.852 , 122.935 , 0
14.98 , 8.291 , 6.852 , 122.935 , 0
15.05 , 8.33 , 6.367 , 123.105 , 0
15.16 , 8.389 , 6.207 , 123.105 , 0
15.24 , 8.433 , 6.207 , 123.105 , 0
15.34 , 8.489 , 6.244 , 122.895 , 0
15.44 , 8.544 , 6.295 , 123.0 , 0
15.54 , 8.6 , 6.403 , 123.092 , 0
15.64 , 8.655 , 6.403 , 123.092 , 0
15.74 , 8.715 , 6.473 , 122.987 , 0
15.84 , 8.767 , 6.526 , 123.131 , 0
15.94 , 8.823 , 6.526 , 123.131 , 0
16.04 , 8.877 , 6.599 , 122.935 , 0
16.14 , 8.933 , 6.741 , 122.974 , 0
16.24 , 8.988 , 6.775 , 122.987 , 0
16.34 , 9.044 , 6.775 , 122.987 , 0
16.47 , 9.119 , 6.854 , 122.961 , 0
16.54 , 9.156 , 6.937 , 123.0 , 0
16.64 , 9.212 , 6.937 , 123.0 , 0
16.74 , 9.266 , 7.026 , 123.197 , 0
16.84 , 9.322 , 7.098 , 123.131 , 0
16.98 , 9.402 , 7.098 , 123.131 , 0
17.05 , 9.44 , 7.198 , 123.223 , 0
17.15 , 9.497 , 7.298 , 122.974 , 0
17.24 , 9.544 , 7.356 , 123.0 , 0
17.34 , 9.6 , 7.356 , 123.0 , 0
17.48 , 9.677 , 7.46 , 123.105 , 0
17.55 , 9.72 , 7.511 , 123.04 , 0
17.65 , 9.771 , 7.511 , 123.04 , 0
17.74 , 9.822 , 7.583 , 122.987 , 0
17.84 , 9.878 , 7.641 , 122.961 , 0
17.98 , 9.955 , 7.677 , 123.105 , 0
18.05 , 9.997 , 7.677 , 123.105 , 0
18.16 , 10.056 , 7.7 , 122.961 , 0
18.24 , 10.099 , 7.736 , 122.987 , 0
18.34 , 10.155 , 7.736 , 122.987 , 0
18.47 , 10.23 , 7.728 , 123.013 , 0
18.55 , 10.275 , 7.702 , 123.092 , 0
18.65 , 10.328 , 7.702 , 123.092 , 0
18.74 , 10.377 , 7.349 , 122.987 , 0
18.84 , 10.433 , 4.23 , 123.092 , 0
18.98 , 10.511 , 1.761 , 123.079 , 0
19.05 , 10.553 , 1.761 , 123.079 , 0
19.16 , 10.61 , 1.452 , 122.895 , 0
19.24 , 10.655 , 1.474 , 122.804 , 0
19.34 , 10.711 , 1.474 , 122.804 , 0
19.44 , 10.766 , 1.397 , 122.948 , 0
19.54 , 10.822 , 1.291 , 123.079 , 0
19.64 , 10.877 , 1.201 , 122.935 , 0
19.74 , 10.933 , 1.201 , 122.935 , 0
19.88 , 11.009 , 1.208 , 122.987 , 0
19.95 , 11.049 , 1.182 , 123.079 , 0
20.05 , 11.108 , 1.182 , 123.079 , 0
20.14 , 11.155 , 1.204 , 122.961 , 0
20.24 , 11.211 , 1.195 , 123.053 , 0
20.34 , 11.267 , 1.204 , 123.053 , 0
20.44 , 11.323 , 1.204 , 123.053 , 0
20.54 , 11.377 , 1.174 , 123.131 , 0
20.64 , 11.436 , 1.174 , 122.974 , 0
20.74 , 11.489 , 1.174 , 122.974 , 0
20.84 , 11.548 , 1.189 , 123.0 , 0
20.94 , 11.599 , 1.17 , 123.105 , 0
21.04 , 11.655 , 1.17 , 123.105 , 0
21.14 , 11.711 , 1.17 , 123.013 , 0
21.24 , 11.766 , 1.131 , 122.987 , 0
21.38 , 11.843 , 1.129 , 123.013 , 0
21.45 , 11.886 , 1.129 , 123.013 , 0
21.56 , 11.945 , 1.131 , 123.118 , 0
21.64 , 11.988 , 1.104 , 123.026 , 0
21.74 , 12.045 , 1.104 , 123.026 , 0
21.84 , 12.1 , 1.089 , 123.092 , 0
21.94 , 12.155 , 1.074 , 122.869 , 0
22.08 , 12.232 , 1.11 , 122.856 , 0
22.15 , 12.274 , 1.11 , 122.856 , 0
22.26 , 12.332 , 1.065 , 123.053 , 0
22.34 , 12.377 , 1.063 , 122.922 , 0
22.44 , 12.433 , 1.063 , 122.922 , 0
22.57 , 12.508 , 1.057 , 122.909 , 0
22.66 , 12.554 , 1.055 , 122.869 , 0
22.76 , 12.613 , 1.057 , 123.026 , 0
22.84 , 12.656 , 1.057 , 123.026 , 0
22.94 , 12.714 , 1.044 , 122.961 , 0
23.04 , 12.766 , 1.044 , 123.118 , 0
23.14 , 12.825 , 1.044 , 123.118 , 0
23.24 , 12.877 , 0.999 , 122.869 , 0
23.34 , 12.937 , 1.004 , 123.04 , 0
23.44 , 12.989 , 1.004 , 123.04 , 0
23.54 , 13.044 , 0.997 , 122.987 , 0
23.67 , 13.12 , 0.974 , 122.961 , 0
23.75 , 13.164 , 0.972 , 122.961 , 0
23.85 , 13.217 , 0.972 , 122.961 , 0
23.94 , 13.266 , 0.972 , 122.961 , 0
24.04 , 13.325 , 0.948 , 122.948 , 0
24.14 , 13.378 , 0.948 , 122.948 , 0
24.24 , 13.433 , 0.957 , 123.053 , 0
24.38 , 13.512 , 0.931 , 122.909 , 0
24.45 , 13.553 , 0.936 , 122.83 , 0
24.55 , 13.607 , 0.936 , 122.83 , 0
24.64 , 13.655 , 0.923 , 123.079 , 0
24.74 , 13.711 , 0.934 , 122.948 , 0
24.84 , 13.766 , 0.934 , 122.948 , 0
24.94 , 13.822 , 0.921 , 122.895 , 0
25.08 , 13.899 , 0.914 , 123.026 , 0
25.15 , 13.941 , 0.914 , 122.948 , 0
25.26 , 13.999 , 0.914 , 122.948 , 0
25.34 , 14.044 , 0.929 , 122.948 , 0
25.44 , 14.102 , 0.891 , 123.184 , 0
25.54 , 14.155 , 0.891 , 123.184 , 0
25.64 , 14.214 , 0.923 , 123.053 , 0
25.74 , 14.266 , 0.925 , 122.961 , 0
25.84 , 14.322 , 0.925 , 122.961 , 0
25.98 , 14.401 , 0.923 , 122.843 , 0
26.06 , 14.443 , 0.904 , 123.079 , 0
26.16 , 14.504 , 0.887 , 123.079 , 0
26.24 , 14.546 , 0.887 , 123.079 , 0
26.35 , 14.605 , 0.893 , 123.079 , 0
26.44 , 14.655 , 0.842 , 122.948 , 0
26.54 , 14.711 , 0.842 , 122.948 , 0
26.68 , 14.787 , 0.868 , 123.0 , 0
26.75 , 14.831 , 0.844 , 123.066 , 0
26.86 , 14.889 , 0.844 , 123.066 , 0
26.94 , 14.933 , 0.829 , 122.935 , 0
27.04 , 14.989 , 0.795 , 122.948 , 0
27.18 , 15.067 , 0.785 , 122.948 , 0
27.25 , 15.109 , 0.785 , 122.948 , 0
27.36 , 15.166 , 0.761 , 122.922 , 0
27.44 , 15.212 , 0.751 , 122.948 , 0
27.54 , 15.269 , 0.751 , 122.948 , 0
27.64 , 15.322 , 0.734 , 123.026 , 0
27.74 , 15.378 , 0.727 , 123.013 , 0
27.84 , 15.433 , 0.721 , 122.974 , 0
27.94 , 15.488 , 0.721 , 122.974 , 0
28.08 , 15.569 , 0.706 , 123.079 , 0
28.16 , 15.613 , 0.676 , 122.895 , 0
28.25 , 15.665 , 0.676 , 122.895 , 0
28.34 , 15.71 , 0.67 , 122.935 , 0
28.44 , 15.766 , 0.636 , 122.909 , 0
28.54 , 15.822 , 0.598 , 122.882 , 0
28.64 , 15.879 , 0.598 , 122.882 , 0
28.74 , 15.933 , 0.566 , 122.987 , 0
28.85 , 15.993 , 0.57 , 122.922 , 0
28.94 , 16.044 , 0.57 , 122.922 , 0
29.04 , 16.103 , 0.553 , 122.922 , 0
29.14 , 16.155 , 0.536 , 122.777 , 0
29.24 , 16.213 , 0.536 , 122.777 , 0
29.34 , 16.266 , 0.549 , 122.961 , 0
29.44 , 16.322 , 0.564 , 123.026 , 0
29.54 , 16.377 , 0.53 , 122.843 , 0
29.64 , 16.435 , 0.53 , 122.843 , 0
29.74 , 16.488 , 0.538 , 122.869 , 0
29.84 , 16.545 , 0.549 , 122.777 , 0
29.94 , 16.599 , 0.549 , 122.777 , 0
30.04 , 16.658 , 0.532 , 122.922 , 0
30.14 , 16.711 , 0.538 , 122.922 , 0
30.24 , 16.767 , 0.483 , 122.948 , 0
30.34 , 16.822 , 0.483 , 122.948 , 0
30.44 , 16.877 , 0.5 , 123.079 , 0
30.54 , 16.933 , 0.495 , 123.105 , 0
30.64 , 16.989 , 0.495 , 123.105 , 0
30.78 , 17.067 , 0.468 , 122.974 , 0
30.86 , 17.11 , 0.459 , 123.026 , 0
30.97 , 17.17 , 0.459 , 123.026 , 0
31.05 , 17.216 , 0.449 , 122.961 , 0
31.14 , 17.269 , 0.43 , 123.013 , 0
31.24 , 17.322 , 0.43 , 123.013 , 0
31.34 , 17.379 , 0.43 , 123.013 , 0
31.44 , 17.433 , 0.44 , 122.882 , 0
31.54 , 17.49 , 0.4 , 122.974 , 0
31.64 , 17.544 , 0.4 , 122.974 , 0
31.74 , 17.6 , 0.379 , 123.158 , 0
31.84 , 17.655 , 0.366 , 122.961 , 0
31.94 , 17.712 , 0.342 , 122.961 , 0
32.04 , 17.766 , 0.342 , 122.961 , 0
32.14 , 17.822 , 0.323 , 122.869 , 0
32.28 , 17.902 , 0.298 , 122.948 , 0
32.37 , 17.948 , 0.268 , 123.0 , 0
32.46 , 18.001 , 0.268 , 123.0 , 0
32.54 , 18.045 , 0.221 , 123.118 , 0
32.64 , 18.1 , 0.221 , 123.118 , 0
32.78 , 18.18 , 0.208 , 122.895 , 0
32.86 , 18.224 , 0.183 , 123.013 , 0
32.96 , 18.276 , 0.147 , 122.948 , 0
33.04 , 18.322 , 0.147 , 122.948 , 0
33.14 , 18.379 , 0.13 , 122.948 , 0
33.24 , 18.433 , 0.138 , 123.013 , 0
33.34 , 18.492 , 0.138 , 123.013 , 0
33.44 , 18.544 , 0.113 , 122.974 , 0
33.54 , 18.602 , 0.096 , 123.013 , 0
33.64 , 18.655 , 0.102 , 123.066 , 0
33.74 , 18.713 , 0.102 , 123.066 , 0
33.84 , 18.766 , 0.085 , 122.948 , 0
33.94 , 18.824 , 0.079 , 122.83 , 0
34.04 , 18.877 , 0.079 , 122.83 , 0
34.14 , 18.934 , 0.096 , 122.922 , 0
34.24 , 18.988 , 0.083 , 122.909 , 0
34.34 , 19.044 , 0.079 , 123.105 , 0
34.48 , 19.122 , 0.079 , 123.105 , 0
34.56 , 19.167 , 0.051 , 122.909 , 0
34.66 , 19.222 , 0.055 , 122.935 , 0
34.74 , 19.266 , 0.055 , 122.935 , 0
34.84 , 19.322 , 0.051 , 122.961 , 0
34.98 , 19.4 , 0.045 , 123.066 , 0
35.07 , 19.448 , 0.051 , 123.0 , 0
35.16 , 19.5 , 0.051 , 123.0 , 0
35.24 , 19.544 , 0.049 , 122.843 , 0
35.34 , 19.603 , 0.051 , 122.909 , 0
35.44 , 19.655 , 0.051 , 122.909 , 0
35.54 , 19.714 , 0.047 , 123.0 , 0
35.64 , 19.766 , 0.038 , 122.856 , 0
35.74 , 19.824 , 0.038 , 122.856 , 0
35.84 , 19.877 , 0.032 , 122.909 , 0
35.94 , 19.933 , 0.038 , 122.987 , 0
36.08 , 20.014 , 0.04 , 122.895 , 0
36.17 , 20.06 , 0.04 , 122.895 , 0
36.26 , 20.114 , 0.07 , 122.922 , 0

Pause

36.42 , 20.161 , 0.036 , 123.131 , 0
36.5 , 20.161 , 0.062 , 122.909 , 0
36.57 , 20.161 , 0.062 , 122.909 , 0
36.65 , 20.161 , -0.006 , 122.961 , 0
36.74 , 20.161 , -0.006 , 122.961 , 0
36.84 , 20.161 , 0.038 , 122.948 , 0
36.94 , 20.161 , 0.021 , 122.909 , 0
37.04 , 20.161 , 0.04 , 122.948 , 0
37.14 , 20.161 , 0.04 , 122.948 , 0
37.24 , 20.161 , 0.053 , 122.869 , 0
37.34 , 20.161 , 0.026 , 123.066 , 0
37.44 , 20.161 , 0.026 , 123.066 , 0
37.54 , 20.161 , 0.047 , 122.843 , 0
37.64 , 20.161 , 0.009 , 122.791 , 0
37.74 , 20.161 , 0.021 , 122.935 , 0
37.84 , 20.161 , 0.021 , 122.935 , 0
37.94 , 20.161 , 0.009 , 122.922 , 0
38.04 , 20.161 , 0.006 , 123.0 , 0
38.14 , 20.161 , 0.006 , 123.0 , 0
