ech1_S15_P10
Time , Disp, Load , Pressure, Volume
0.08 , 0.017 , -0.341 , 12.634 , 0
0.16 , 0.06 , -0.335 , 12.49 , 0
0.25 , 0.123 , -0.335 , 12.49 , 0
0.38 , 0.208 , -0.345 , 12.595 , 0
0.44 , 0.248 , -0.345 , 12.595 , 0
0.56 , 0.311 , -0.341 , 12.556 , 0
0.67 , 0.388 , -0.341 , 12.398 , 0
0.75 , 0.435 , -0.341 , 12.398 , 0
0.84 , 0.498 , -0.354 , 12.228 , 0
0.97 , 0.578 , -0.354 , 12.228 , 0
1.05 , 0.623 , -0.333 , 12.32 , 0
1.15 , 0.686 , -0.333 , 12.32 , 0
1.28 , 0.768 , -0.341 , 12.084 , 0
1.36 , 0.81 , -0.341 , 12.084 , 0
1.45 , 0.873 , -0.345 , 11.782 , 0
1.58 , 0.959 , -0.345 , 11.782 , 0
1.64 , 0.998 , -0.33 , 11.743 , 0
1.76 , 1.061 , -0.33 , 11.743 , 0
1.87 , 1.139 , -0.335 , 11.9 , 0
1.95 , 1.186 , -0.335 , 11.9 , 0
2.05 , 1.248 , -0.339 , 11.9 , 0
2.16 , 1.319 , -0.339 , 11.9 , 0
2.25 , 1.373 , -0.337 , 11.822 , 0
2.35 , 1.436 , -0.337 , 11.822 , 0
2.48 , 1.519 , -0.347 , 11.415 , 0
2.56 , 1.56 , -0.347 , 11.415 , 0
2.65 , 1.623 , -0.345 , 11.311 , 0
2.78 , 1.709 , -0.345 , 11.311 , 0
2.85 , 1.748 , -0.339 , 11.415 , 0
2.96 , 1.811 , -0.339 , 11.311 , 0
3.07 , 1.889 , -0.339 , 11.311 , 0
3.15 , 1.936 , -0.324 , 11.153 , 0
3.25 , 1.998 , -0.324 , 11.153 , 0
3.37 , 2.079 , -0.341 , 11.219 , 0
3.45 , 2.123 , -0.341 , 11.219 , 0
3.55 , 2.186 , -0.343 , 11.153 , 0
3.68 , 2.269 , -0.343 , 11.153 , 0
3.76 , 2.311 , -0.322 , 11.088 , 0
3.85 , 2.373 , -0.322 , 11.088 , 0
3.97 , 2.45 , -0.35 , 10.97 , 0
4.05 , 2.498 , -0.35 , 10.97 , 0
4.14 , 2.561 , -0.335 , 10.891 , 0
4.25 , 2.63 , -0.335 , 10.891 , 0
4.35 , 2.686 , -0.35 , 10.839 , 0
4.45 , 2.748 , -0.35 , 10.839 , 0
4.58 , 2.83 , -0.347 , 10.76 , 0
4.66 , 2.873 , -0.347 , 10.76 , 0
4.75 , 2.936 , -0.328 , 10.695 , 0
4.88 , 3.02 , -0.328 , 10.695 , 0
4.94 , 3.061 , -0.339 , 10.616 , 0
5.06 , 3.123 , -0.339 , 10.616 , 0
5.17 , 3.2 , -0.337 , 10.354 , 0
5.25 , 3.248 , -0.328 , 10.288 , 0
5.34 , 3.311 , -0.328 , 10.288 , 0
5.46 , 3.38 , -0.341 , 10.223 , 0
5.55 , 3.435 , -0.341 , 10.223 , 0
5.65 , 3.498 , -0.307 , 10.183 , 0
5.78 , 3.58 , -0.307 , 10.183 , 0
5.86 , 3.623 , -0.305 , 10.118 , 0
5.95 , 3.685 , -0.305 , 10.118 , 0
6.08 , 3.77 , -0.303 , 10.118 , 0
6.14 , 3.81 , -0.303 , 10.118 , 0
6.26 , 3.873 , -0.281 , 10.026 , 0
6.37 , 3.951 , -0.281 , 10.026 , 0
6.45 , 3.998 , -0.269 , 10.026 , 0
6.54 , 4.06 , -0.269 , 10.026 , 0
6.67 , 4.141 , -0.29 , 9.646 , 0
6.75 , 4.185 , -0.29 , 9.646 , 0
6.85 , 4.248 , -0.267 , 9.856 , 0
6.98 , 4.331 , -0.267 , 9.856 , 0
7.06 , 4.373 , -0.279 , 9.869 , 0
7.15 , 4.435 , -0.279 , 9.869 , 0
7.28 , 4.521 , -0.252 , 9.62 , 0
7.34 , 4.561 , -0.254 , 9.646 , 0
7.46 , 4.623 , -0.254 , 9.646 , 0
7.57 , 4.701 , -0.247 , 9.554 , 0
7.65 , 4.748 , -0.247 , 9.554 , 0
7.75 , 4.811 , -0.245 , 9.463 , 0
7.87 , 4.891 , -0.245 , 9.463 , 0
7.95 , 4.935 , -0.224 , 9.659 , 0
8.05 , 4.998 , -0.224 , 9.659 , 0
8.18 , 5.082 , -0.239 , 9.463 , 0
8.24 , 5.123 , -0.239 , 9.463 , 0
8.35 , 5.186 , -0.216 , 9.358 , 0
8.47 , 5.262 , -0.216 , 9.358 , 0
8.55 , 5.311 , -0.201 , 9.318 , 0
8.64 , 5.373 , -0.201 , 9.318 , 0
8.77 , 5.452 , -0.203 , 9.41 , 0
8.85 , 5.498 , -0.203 , 9.41 , 0
8.95 , 5.561 , -0.186 , 9.371 , 0
9.07 , 5.642 , -0.186 , 9.371 , 0
9.15 , 5.686 , -0.177 , 9.082 , 0
9.25 , 5.748 , -0.177 , 9.082 , 0
9.38 , 5.832 , -0.171 , 9.043 , 0
9.44 , 5.873 , -0.171 , 9.043 , 0
9.55 , 5.935 , -0.167 , 8.951 , 0
9.67 , 6.012 , -0.154 , 9.017 , 0
9.75 , 6.06 , -0.154 , 9.017 , 0
9.84 , 6.123 , -0.15 , 8.82 , 0
9.97 , 6.202 , -0.15 , 8.82 , 0
10.05 , 6.248 , -0.128 , 8.938 , 0
10.15 , 6.31 , -0.128 , 8.938 , 0
10.28 , 6.392 , -0.124 , 8.965 , 0
10.36 , 6.435 , -0.124 , 8.965 , 0
10.45 , 6.498 , -0.111 , 8.729 , 0
10.58 , 6.583 , -0.111 , 8.729 , 0
10.64 , 6.623 , -0.118 , 8.637 , 0
10.76 , 6.686 , -0.118 , 8.637 , 0
10.87 , 6.763 , -0.088 , 8.637 , 0
10.95 , 6.811 , -0.088 , 8.637 , 0
11.04 , 6.873 , -0.086 , 8.453 , 0
11.17 , 6.953 , -0.086 , 8.453 , 0
11.25 , 6.998 , -0.073 , 8.637 , 0
11.35 , 7.06 , -0.073 , 8.637 , 0
11.48 , 7.143 , -0.067 , 8.532 , 0
11.56 , 7.186 , -0.067 , 8.532 , 0
11.65 , 7.248 , -0.067 , 8.506 , 0
11.78 , 7.333 , -0.067 , 8.506 , 0
11.84 , 7.373 , -0.058 , 8.244 , 0
11.96 , 7.436 , -0.028 , 8.283 , 0
12.07 , 7.513 , -0.028 , 8.283 , 0
12.15 , 7.56 , -0.035 , 8.48 , 0
12.24 , 7.623 , -0.035 , 8.48 , 0
12.37 , 7.703 , -0.026 , 8.244 , 0
12.45 , 7.748 , -0.026 , 8.244 , 0
12.55 , 7.811 , -0.001 , 8.388 , 0
12.68 , 7.894 , -0.001 , 8.388 , 0
12.76 , 7.936 , 0.014 , 8.322 , 0
12.85 , 7.998 , 0.014 , 8.322 , 0
12.98 , 8.084 , 0.006 , 8.951 , 0
13.05 , 8.123 , 0.006 , 8.951 , 0
13.16 , 8.185 , 0.048 , 8.716 , 0
13.27 , 8.264 , 0.048 , 8.716 , 0
13.35 , 8.311 , 0.025 , 8.244 , 0
13.45 , 8.373 , 0.025 , 8.244 , 0
13.57 , 8.454 , 0.042 , 8.257 , 0
13.65 , 8.498 , 0.042 , 8.257 , 0
13.75 , 8.561 , 0.055 , 7.903 , 0
13.88 , 8.644 , 0.055 , 7.903 , 0
13.96 , 8.686 , 0.08 , 8.034 , 0
14.05 , 8.748 , 0.08 , 8.034 , 0
14.18 , 8.834 , 0.093 , 8.152 , 0
14.25 , 8.873 , 0.099 , 8.06 , 0
14.34 , 8.936 , 0.099 , 8.06 , 0
14.47 , 9.014 , 0.121 , 8.086 , 0
14.55 , 9.06 , 0.121 , 8.086 , 0
14.65 , 9.123 , 0.14 , 8.1 , 0
14.77 , 9.204 , 0.14 , 8.1 , 0
14.85 , 9.248 , 0.138 , 7.536 , 0
14.95 , 9.311 , 0.138 , 7.536 , 0
15.08 , 9.395 , 0.174 , 6.789 , 0
15.14 , 9.435 , 0.174 , 6.789 , 0
15.25 , 9.498 , 0.172 , 7.811 , 0
15.37 , 9.575 , 0.172 , 7.811 , 0
15.45 , 9.623 , 0.201 , 7.785 , 0
15.54 , 9.686 , 0.201 , 7.785 , 0
15.67 , 9.765 , 0.206 , 8.047 , 0
15.75 , 9.81 , 0.206 , 8.047 , 0
15.85 , 9.873 , 0.199 , 8.008 , 0
15.98 , 9.955 , 0.199 , 8.008 , 0
16.06 , 9.998 , 0.223 , 7.942 , 0
16.15 , 10.06 , 0.223 , 7.942 , 0
16.28 , 10.145 , 0.246 , 7.968 , 0
16.34 , 10.185 , 0.269 , 7.851 , 0
16.46 , 10.248 , 0.269 , 7.851 , 0
16.57 , 10.325 , 0.291 , 7.575 , 0
16.65 , 10.372 , 0.291 , 7.575 , 0
16.74 , 10.435 , 0.306 , 7.51 , 0
16.86 , 10.505 , 0.306 , 7.51 , 0
16.95 , 10.56 , 0.295 , 7.955 , 0
17.05 , 10.623 , 0.295 , 7.955 , 0
17.16 , 10.696 , 0.327 , 7.955 , 0
17.26 , 10.748 , 0.327 , 7.955 , 0
17.35 , 10.81 , 0.337 , 8.034 , 0
17.48 , 10.896 , 0.337 , 8.034 , 0
17.54 , 10.935 , 0.367 , 7.864 , 0
17.66 , 10.998 , 0.367 , 7.864 , 0
17.77 , 11.076 , 0.384 , 7.667 , 0
17.85 , 11.123 , 0.384 , 7.667 , 0
17.95 , 11.186 , 0.397 , 7.746 , 0
18.07 , 11.266 , 0.397 , 7.746 , 0
18.15 , 11.31 , 0.431 , 8.047 , 0
18.25 , 11.373 , 0.431 , 8.047 , 0
18.38 , 11.456 , 0.446 , 7.706 , 0
18.46 , 11.498 , 0.446 , 7.706 , 0
18.55 , 11.566 , 0.45 , 7.811 , 0
18.65 , 11.623 , 0.467 , 7.693 , 0
18.75 , 11.685 , 0.467 , 7.693 , 0
18.87 , 11.766 , 0.495 , 7.746 , 0
18.95 , 11.81 , 0.495 , 7.746 , 0
19.05 , 11.873 , 0.522 , 7.759 , 0
19.18 , 11.957 , 0.522 , 7.759 , 0
19.26 , 11.998 , 0.537 , 7.811 , 0
19.35 , 12.06 , 0.537 , 7.811 , 0
19.48 , 12.147 , 0.559 , 7.785 , 0
19.55 , 12.185 , 0.559 , 7.785 , 0
19.64 , 12.248 , 0.586 , 7.811 , 0
19.77 , 12.327 , 0.586 , 7.811 , 0
19.85 , 12.373 , 0.627 , 7.693 , 0
19.95 , 12.435 , 0.627 , 7.693 , 0
20.07 , 12.517 , 0.644 , 7.824 , 0
20.15 , 12.56 , 0.644 , 7.824 , 0
20.25 , 12.623 , 0.659 , 7.824 , 0
20.38 , 12.707 , 0.659 , 7.824 , 0
20.44 , 12.748 , 0.684 , 8.021 , 0
20.56 , 12.81 , 0.684 , 8.021 , 0
20.67 , 12.887 , 0.697 , 7.693 , 0
20.75 , 12.935 , 0.697 , 7.693 , 0
20.84 , 12.998 , 0.724 , 7.746 , 0
20.97 , 13.077 , 0.778 , 8.008 , 0
21.05 , 13.123 , 0.778 , 8.008 , 0
21.15 , 13.186 , 0.801 , 8.152 , 0
21.28 , 13.268 , 0.801 , 8.152 , 0
21.36 , 13.311 , 0.82 , 8.257 , 0
21.45 , 13.372 , 0.82 , 8.257 , 0
21.58 , 13.458 , 0.841 , 8.178 , 0
21.66 , 13.501 , 0.841 , 8.178 , 0
21.76 , 13.561 , 0.871 , 8.047 , 0
21.88 , 13.648 , 0.871 , 8.047 , 0
21.95 , 13.685 , 0.892 , 8.204 , 0
22.04 , 13.748 , 0.892 , 8.204 , 0
22.17 , 13.828 , 0.924 , 6.737 , 0
22.25 , 13.873 , 0.924 , 6.737 , 0
22.35 , 13.936 , 0.965 , 6.068 , 0
22.48 , 14.018 , 0.965 , 6.068 , 0
22.56 , 14.06 , 0.992 , 7.457 , 0
22.65 , 14.122 , 0.992 , 7.457 , 0
22.76 , 14.198 , 1.016 , 8.217 , 0
22.84 , 14.248 , 1.016 , 8.217 , 0
22.96 , 14.31 , 1.063 , 8.401 , 0
23.07 , 14.388 , 1.063 , 8.401 , 0
23.15 , 14.435 , 1.09 , 8.139 , 0
23.25 , 14.498 , 1.122 , 8.073 , 0
23.37 , 14.578 , 1.122 , 8.073 , 0
23.45 , 14.623 , 1.128 , 8.086 , 0
23.55 , 14.685 , 1.128 , 8.086 , 0
23.68 , 14.769 , 1.169 , 8.06 , 0
23.76 , 14.81 , 1.169 , 8.06 , 0
23.85 , 14.873 , 1.214 , 8.113 , 0
23.98 , 14.959 , 1.214 , 8.113 , 0
24.05 , 14.997 , 1.235 , 8.139 , 0
24.16 , 15.06 , 1.235 , 8.139 , 0
24.27 , 15.139 , 1.279 , 8.322 , 0
24.35 , 15.185 , 1.279 , 8.322 , 0
24.45 , 15.248 , 1.324 , 8.047 , 0
24.57 , 15.329 , 1.324 , 8.047 , 0
24.65 , 15.373 , 1.348 , 8.27 , 0
24.75 , 15.435 , 1.348 , 8.27 , 0
24.88 , 15.519 , 1.384 , 8.349 , 0
24.94 , 15.56 , 1.384 , 8.349 , 0
25.05 , 15.622 , 1.403 , 8.558 , 0
25.17 , 15.699 , 1.403 , 8.558 , 0
25.25 , 15.748 , 1.424 , 8.349 , 0
25.34 , 15.81 , 1.471 , 8.467 , 0
25.47 , 15.889 , 1.471 , 8.467 , 0
25.55 , 15.938 , 1.498 , 8.506 , 0
25.65 , 15.998 , 1.498 , 8.506 , 0
25.77 , 16.08 , 1.541 , 8.886 , 0
25.86 , 16.122 , 1.541 , 8.886 , 0
25.95 , 16.185 , 1.571 , 8.925 , 0
26.08 , 16.27 , 1.571 , 8.925 , 0
26.14 , 16.31 , 1.601 , 9.554 , 0
26.26 , 16.372 , 1.601 , 9.554 , 0
26.37 , 16.45 , 1.649 , 8.676 , 0
26.45 , 16.497 , 1.649 , 8.676 , 0
26.54 , 16.561 , 1.679 , 8.847 , 0
26.67 , 16.64 , 1.679 , 8.847 , 0
26.75 , 16.685 , 1.709 , 8.65 , 0
26.85 , 16.748 , 1.709 , 8.65 , 0
26.98 , 16.83 , 1.728 , 9.266 , 0
27.06 , 16.873 , 1.728 , 9.266 , 0
27.15 , 16.935 , 1.788 , 9.109 , 0
27.28 , 17.02 , 1.788 , 9.109 , 0
27.36 , 17.067 , 1.82 , 8.899 , 0
27.46 , 17.123 , 1.82 , 8.899 , 0
27.58 , 17.21 , 1.856 , 8.833 , 0
27.66 , 17.255 , 1.917 , 9.109 , 0
27.74 , 17.31 , 1.917 , 9.109 , 0
27.89 , 17.401 , 1.966 , 9.056 , 0
27.97 , 17.445 , 1.966 , 9.056 , 0
28.05 , 17.5 , 1.99 , 8.951 , 0
28.15 , 17.56 , 1.99 , 8.951 , 0
28.26 , 17.623 , 2.043 , 9.122 , 0
28.35 , 17.691 , 2.043 , 9.122 , 0
28.45 , 17.748 , 2.09 , 9.332 , 0
28.55 , 17.81 , 2.09 , 9.332 , 0
28.67 , 17.891 , 2.151 , 9.659 , 0
28.75 , 17.935 , 2.151 , 9.659 , 0
28.85 , 17.998 , 2.196 , 9.214 , 0
28.98 , 18.081 , 2.196 , 9.214 , 0
29.04 , 18.122 , 2.26 , 9.594 , 0
29.15 , 18.185 , 2.26 , 9.594 , 0
29.27 , 18.261 , 2.311 , 10.013 , 0
29.35 , 18.31 , 2.311 , 10.013 , 0
29.46 , 18.373 , 2.385 , 9.725 , 0
29.57 , 18.451 , 2.385 , 9.725 , 0
29.65 , 18.498 , 2.434 , 9.869 , 0
29.75 , 18.56 , 2.434 , 9.869 , 0
29.87 , 18.642 , 2.489 , 9.908 , 0
29.95 , 18.687 , 2.56 , 10.21 , 0
30.05 , 18.748 , 2.56 , 10.21 , 0
30.18 , 18.832 , 2.604 , 10.079 , 0
30.24 , 18.873 , 2.604 , 10.079 , 0
30.35 , 18.936 , 2.604 , 10.065 , 0
30.47 , 19.012 , 2.604 , 10.065 , 0
30.55 , 19.06 , 2.643 , 10.328 , 0
30.64 , 19.123 , 2.643 , 10.328 , 0
30.77 , 19.202 , 2.762 , 10.76 , 0
30.85 , 19.247 , 2.762 , 10.76 , 0
30.95 , 19.31 , 2.834 , 10.629 , 0
31.08 , 19.392 , 2.834 , 10.629 , 0
31.16 , 19.437 , 2.9 , 10.577 , 0
31.25 , 19.497 , 2.9 , 10.577 , 0
31.38 , 19.582 , 2.972 , 10.563 , 0
31.44 , 19.623 , 2.972 , 10.563 , 0
31.56 , 19.686 , 3.059 , 10.826 , 0
31.67 , 19.762 , 3.059 , 10.826 , 0
31.75 , 19.81 , 3.132 , 11.848 , 0
31.84 , 19.872 , 3.132 , 11.848 , 0
31.97 , 19.953 , 3.204 , 11.245 , 0
32.05 , 19.997 , 3.038 , 10.747 , 0
32.15 , 20.06 , 3.038 , 10.747 , 0
32.28 , 20.143 , 3.083 , 11.73 , 0
32.36 , 20.185 , 3.083 , 11.73 , 0
32.45 , 20.248 , 3.191 , 11.35 , 0
32.58 , 20.333 , 3.191 , 11.35 , 0
32.64 , 20.372 , 3.323 , 11.533 , 0
32.76 , 20.435 , 3.323 , 11.533 , 0
32.87 , 20.513 , 3.444 , 11.782 , 0
32.95 , 20.56 , 3.444 , 11.782 , 0
33.04 , 20.622 , 3.54 , 11.927 , 0
33.17 , 20.703 , 3.54 , 11.927 , 0
33.25 , 20.748 , 3.636 , 12.097 , 0
33.35 , 20.81 , 3.636 , 12.097 , 0
33.48 , 20.893 , 3.708 , 12.28 , 0
33.56 , 20.939 , 3.708 , 12.28 , 0
33.65 , 20.997 , 3.789 , 12.398 , 0
33.78 , 21.084 , 3.789 , 12.398 , 0
33.85 , 21.123 , 3.899 , 12.66 , 0
33.96 , 21.185 , 3.899 , 12.66 , 0
34.07 , 21.263 , 3.974 , 12.923 , 0
34.15 , 21.31 , 3.974 , 12.923 , 0
34.25 , 21.373 , 4.08 , 12.923 , 0
34.37 , 21.454 , 4.178 , 13.054 , 0
34.45 , 21.497 , 4.178 , 13.054 , 0
34.55 , 21.56 , 4.231 , 13.342 , 0
34.68 , 21.644 , 4.231 , 13.342 , 0
34.74 , 21.685 , 4.348 , 13.46 , 0
34.85 , 21.748 , 4.348 , 13.46 , 0
34.97 , 21.824 , 4.446 , 13.774 , 0
35.05 , 21.872 , 4.446 , 13.774 , 0
35.16 , 21.935 , 4.529 , 13.84 , 0
35.25 , 22.004 , 4.529 , 13.84 , 0
35.35 , 22.06 , 4.624 , 14.037 , 0
35.45 , 22.123 , 4.624 , 14.037 , 0
35.57 , 22.204 , 4.707 , 14.325 , 0
35.65 , 22.247 , 4.707 , 14.325 , 0
35.75 , 22.31 , 4.818 , 14.351 , 0
35.86 , 22.384 , 4.818 , 14.351 , 0
35.94 , 22.435 , 4.903 , 14.535 , 0
36.05 , 22.498 , 4.903 , 14.535 , 0
36.17 , 22.574 , 4.997 , 14.731 , 0
36.25 , 22.623 , 4.997 , 14.731 , 0
36.34 , 22.685 , 5.075 , 14.928 , 0
36.47 , 22.765 , 5.075 , 14.928 , 0
36.55 , 22.81 , 5.179 , 15.255 , 0
36.65 , 22.873 , 5.288 , 15.269 , 0
36.78 , 22.955 , 5.288 , 15.269 , 0
36.86 , 22.998 , 5.388 , 15.531 , 0
36.95 , 23.06 , 5.388 , 15.531 , 0
37.08 , 23.145 , 5.496 , 15.832 , 0
37.16 , 23.196 , 5.496 , 15.832 , 0
37.26 , 23.247 , 5.622 , 16.016 , 0
37.38 , 23.335 , 5.622 , 16.016 , 0
37.45 , 23.374 , 5.692 , 16.199 , 0
37.54 , 23.435 , 5.692 , 16.199 , 0
37.67 , 23.515 , 5.809 , 16.369 , 0
37.75 , 23.56 , 5.809 , 16.369 , 0
37.85 , 23.622 , 5.902 , 16.566 , 0
37.98 , 23.705 , 5.902 , 16.566 , 0
38.06 , 23.748 , 6.011 , 16.841 , 0
38.15 , 23.81 , 6.011 , 16.841 , 0
38.28 , 23.895 , 6.119 , 17.012 , 0
38.36 , 23.938 , 6.119 , 17.012 , 0
38.46 , 23.997 , 6.236 , 17.549 , 0
38.58 , 24.086 , 6.236 , 17.549 , 0
38.65 , 24.124 , 6.332 , 17.588 , 0
38.74 , 24.185 , 6.332 , 17.588 , 0
38.87 , 24.266 , 6.443 , 17.798 , 0
38.95 , 24.31 , 6.557 , 18.008 , 0
39.05 , 24.373 , 6.557 , 18.008 , 0
39.18 , 24.456 , 6.666 , 18.335 , 0
39.26 , 24.498 , 6.666 , 18.335 , 0
39.35 , 24.56 , 6.755 , 18.584 , 0
39.48 , 24.646 , 6.755 , 18.584 , 0
39.55 , 24.685 , 6.859 , 19.2 , 0
39.66 , 24.747 , 6.859 , 19.2 , 0
39.79 , 24.836 , 6.963 , 19.384 , 0
39.87 , 24.879 , 6.963 , 19.384 , 0
39.95 , 24.935 , 7.083 , 19.423 , 0
40.07 , 25.0 , 7.083 , 19.423 , 0
40.15 , 25.0 , 7.178 , 19.594 , 0
40.25 , 25.0 , 7.178 , 19.594 , 0
40.35 , 25.0 , 7.274 , 18.584 , 0
40.46 , 25.0 , 7.274 , 18.584 , 0
40.55 , 25.0 , 7.221 , 18.611 , 0
40.65 , 25.0 , 7.221 , 18.611 , 0
40.75 , 25.0 , 7.004 , 17.13 , 0
40.84 , 25.0 , 7.004 , 17.13 , 0
40.95 , 25.0 , 6.81 , 17.47 , 0
