caro_tomo_echI
circ
Time , Disp, Load , Pressure, Volume
0.05 , 0.003 , -0.0 , -0.668 , 0
0.14 , 0.049 , 0.019 , -0.747 , 0
0.25 , 0.116 , 0.019 , -0.747 , 0
0.33 , 0.16 , 0.004 , -0.498 , 0
0.45 , 0.216 , 0.015 , -0.76 , 0
0.56 , 0.285 , 0.015 , -0.76 , 0
0.64 , 0.327 , 0.008 , -0.734 , 0
0.73 , 0.383 , 0.004 , -0.695 , 0
0.86 , 0.454 , 0.017 , -0.904 , 0
0.94 , 0.493 , 0.017 , -0.904 , 0
1.04 , 0.549 , 0.004 , -0.904 , 0
1.16 , 0.623 , 0.017 , -0.904 , 0
1.24 , 0.66 , 0.017 , -0.904 , 0
1.34 , 0.716 , 0.011 , -0.852 , 0
1.47 , 0.792 , 0.017 , -0.734 , 0
1.53 , 0.827 , 0.002 , -0.878 , 0
1.64 , 0.883 , 0.002 , -0.878 , 0
1.76 , 0.951 , -0.0 , -0.944 , 0
1.84 , 0.994 , 0.017 , -1.009 , 0
1.93 , 1.049 , 0.017 , -1.009 , 0
2.06 , 1.12 , 0.004 , -0.839 , 0
2.14 , 1.16 , 0.008 , -0.786 , 0
2.24 , 1.216 , 0.006 , -1.048 , 0
2.36 , 1.289 , 0.006 , -1.048 , 0
2.44 , 1.327 , 0.011 , -0.852 , 0
2.54 , 1.383 , 0.006 , -0.904 , 0
2.67 , 1.458 , 0.006 , -0.904 , 0
2.73 , 1.494 , 0.013 , -0.891 , 0
2.84 , 1.549 , 0.015 , -0.904 , 0
2.96 , 1.617 , 0.015 , -0.904 , 0
3.04 , 1.661 , -0.0 , -0.839 , 0
3.15 , 1.716 , 0.002 , -0.891 , 0
3.26 , 1.786 , 0.013 , -0.826 , 0
3.34 , 1.827 , 0.013 , -0.826 , 0
3.44 , 1.883 , 0.028 , -0.917 , 0
3.56 , 1.955 , 0.004 , -1.088 , 0
3.64 , 1.994 , 0.004 , -1.088 , 0
3.74 , 2.05 , 0.017 , -1.14 , 0
3.87 , 2.124 , 0.008 , -1.219 , 0
3.93 , 2.16 , 0.013 , -1.271 , 0
4.04 , 2.216 , 0.013 , -1.271 , 0
4.15 , 2.283 , 0.006 , -1.363 , 0
4.23 , 2.327 , -0.009 , -1.507 , 0
4.35 , 2.383 , -0.009 , -1.507 , 0
4.46 , 2.452 , 0.015 , -1.284 , 0
4.54 , 2.493 , 0.006 , -1.442 , 0
4.63 , 2.549 , 0.006 , -1.442 , 0
4.76 , 2.621 , 0.004 , -1.56 , 0
4.84 , 2.66 , 0.023 , -1.389 , 0
4.94 , 2.716 , 0.017 , -1.442 , 0
5.05 , 2.781 , 0.017 , -1.442 , 0
5.15 , 2.827 , 0.015 , -1.52 , 0
5.24 , 2.883 , 0.011 , -1.664 , 0
5.35 , 2.95 , 0.011 , -1.664 , 0
5.43 , 2.994 , 0.015 , -1.324 , 0
5.55 , 3.05 , -0.0 , -1.625 , 0
5.66 , 3.118 , 0.013 , -1.612 , 0
5.74 , 3.16 , 0.013 , -1.612 , 0
5.83 , 3.216 , 0.017 , -1.678 , 0
5.94 , 3.278 , 0.015 , -1.966 , 0
6.04 , 3.327 , 0.015 , -1.966 , 0
6.14 , 3.383 , 0.019 , -2.018 , 0
6.26 , 3.456 , -0.0 , -1.796 , 0
6.34 , 3.494 , -0.0 , -1.796 , 0
6.44 , 3.549 , 0.004 , -2.031 , 0
6.57 , 3.625 , 0.017 , -2.031 , 0
6.63 , 3.66 , 0.015 , -2.254 , 0
6.74 , 3.716 , 0.015 , -2.254 , 0
6.86 , 3.785 , 0.019 , -2.084 , 0
6.94 , 3.827 , 0.019 , -2.307 , 0
7.03 , 3.883 , 0.019 , -2.307 , 0
7.16 , 3.953 , 0.03 , -2.136 , 0
7.24 , 3.994 , -0.004 , -2.136 , 0
7.34 , 4.049 , 0.004 , -2.464 , 0
7.46 , 4.122 , 0.004 , -2.464 , 0
7.54 , 4.161 , 0.017 , -2.294 , 0
7.64 , 4.216 , 0.011 , -2.398 , 0
7.77 , 4.291 , 0.011 , -2.398 , 0
7.83 , 4.327 , 0.009 , -2.412 , 0
7.94 , 4.383 , 0.021 , -2.346 , 0
8.06 , 4.451 , -0.0 , -2.569 , 0
8.14 , 4.494 , -0.0 , -2.569 , 0
8.23 , 4.549 , 0.021 , -2.398 , 0
8.36 , 4.619 , 0.006 , -2.543 , 0
8.44 , 4.66 , 0.006 , -2.543 , 0
8.53 , 4.716 , 0.013 , -2.49 , 0
8.66 , 4.788 , 0.013 , -2.529 , 0
8.74 , 4.827 , 0.013 , -2.529 , 0
8.84 , 4.883 , 0.019 , -2.634 , 0
8.97 , 4.957 , 0.015 , -2.739 , 0
9.05 , 4.995 , 0.002 , -2.582 , 0
9.14 , 5.049 , 0.002 , -2.582 , 0
9.27 , 5.126 , 0.019 , -2.923 , 0
9.33 , 5.16 , 0.017 , -2.778 , 0
9.45 , 5.216 , 0.017 , -2.778 , 0
9.56 , 5.285 , 0.006 , -2.713 , 0
9.64 , 5.327 , 0.004 , -2.818 , 0
9.73 , 5.383 , 0.028 , -2.661 , 0
9.86 , 5.454 , 0.028 , -2.661 , 0
9.94 , 5.494 , 0.011 , -2.556 , 0
10.04 , 5.549 , 0.013 , -2.87 , 0
10.17 , 5.623 , 0.013 , -2.87 , 0
10.25 , 5.66 , -0.004 , -2.896 , 0
10.34 , 5.716 , 0.013 , -2.91 , 0
10.47 , 5.792 , 0.013 , -2.91 , 0
10.53 , 5.827 , 0.011 , -2.857 , 0
10.64 , 5.883 , -0.004 , -2.792 , 0
10.76 , 5.951 , 0.011 , -3.027 , 0
10.84 , 5.994 , 0.011 , -3.027 , 0
10.93 , 6.05 , 0.013 , -2.844 , 0
11.06 , 6.12 , 0.013 , -2.726 , 0
11.14 , 6.16 , 0.013 , -2.726 , 0
11.24 , 6.216 , 0.009 , -2.949 , 0
11.36 , 6.289 , 0.013 , -2.831 , 0
11.44 , 6.327 , 0.013 , -2.778 , 0
11.54 , 6.383 , 0.013 , -2.778 , 0
11.67 , 6.458 , -0.006 , -2.975 , 0
11.73 , 6.494 , 0.021 , -3.027 , 0
11.84 , 6.549 , 0.021 , -3.027 , 0
11.96 , 6.618 , 0.021 , -2.949 , 0
12.04 , 6.661 , 0.0 , -3.106 , 0
12.13 , 6.716 , 0.0 , -3.106 , 0
12.26 , 6.786 , 0.004 , -3.132 , 0
12.34 , 6.827 , -0.013 , -3.041 , 0
12.44 , 6.882 , 0.004 , -2.857 , 0
12.56 , 6.955 , 0.004 , -2.857 , 0
12.64 , 6.993 , 0.006 , -2.883 , 0
12.74 , 7.049 , 0.006 , -2.988 , 0
12.87 , 7.124 , 0.006 , -2.988 , 0
12.93 , 7.16 , 0.017 , -2.896 , 0
13.04 , 7.216 , 0.021 , -2.844 , 0
13.15 , 7.284 , 0.03 , -3.067 , 0
13.23 , 7.327 , 0.03 , -3.067 , 0
13.35 , 7.383 , 0.017 , -2.844 , 0
13.44 , 7.444 , 0.011 , -2.936 , 0
13.54 , 7.493 , 0.011 , -2.936 , 0
13.63 , 7.549 , 0.006 , -2.883 , 0
13.76 , 7.621 , 0.006 , -2.844 , 0
13.84 , 7.66 , 0.019 , -2.883 , 0
13.94 , 7.716 , 0.019 , -2.883 , 0
14.07 , 7.79 , -0.002 , -2.739 , 0
14.15 , 7.827 , 0.009 , -2.765 , 0
14.24 , 7.883 , 0.009 , -2.765 , 0
14.37 , 7.959 , -0.002 , -2.805 , 0
14.43 , 7.994 , 0.0 , -2.726 , 0
14.55 , 8.049 , 0.0 , -2.726 , 0
14.66 , 8.119 , 0.019 , -2.739 , 0
14.74 , 8.16 , 0.004 , -2.661 , 0
14.83 , 8.216 , 0.004 , -2.412 , 0
14.96 , 8.287 , 0.004 , -2.412 , 0
15.04 , 8.327 , 0.013 , -2.451 , 0
15.14 , 8.382 , -0.002 , -2.582 , 0
15.25 , 8.447 , -0.002 , -2.582 , 0
15.34 , 8.494 , 0.015 , -2.438 , 0
15.44 , 8.549 , 0.017 , -2.49 , 0
15.57 , 8.625 , 0.017 , -2.32 , 0
15.63 , 8.66 , 0.017 , -2.32 , 0
15.74 , 8.716 , -0.002 , -2.215 , 0
15.86 , 8.785 , -0.009 , -2.215 , 0
15.94 , 8.827 , -0.009 , -2.215 , 0
16.03 , 8.882 , 0.002 , -2.412 , 0
16.14 , 8.944 , 0.026 , -2.176 , 0
16.24 , 8.993 , 0.026 , -2.176 , 0
16.34 , 9.049 , 0.006 , -2.031 , 0
16.46 , 9.122 , 0.03 , -2.097 , 0
16.54 , 9.16 , 0.017 , -1.94 , 0
16.64 , 9.216 , 0.017 , -1.94 , 0
16.77 , 9.291 , 0.006 , -1.992 , 0
16.83 , 9.327 , -0.004 , -2.031 , 0
16.94 , 9.382 , -0.004 , -2.031 , 0
17.06 , 9.451 , 0.021 , -1.9 , 0
17.14 , 9.493 , 0.023 , -1.612 , 0
17.23 , 9.549 , 0.023 , -1.651 , 0
17.36 , 9.619 , 0.023 , -1.651 , 0
17.44 , 9.66 , 0.079 , -1.691 , 0
17.54 , 9.716 , 0.151 , -1.599 , 0
17.66 , 9.788 , 0.151 , -1.599 , 0
17.74 , 9.827 , 0.206 , -1.429 , 0
17.84 , 9.882 , 0.264 , -1.271 , 0
17.97 , 9.957 , 0.306 , -1.153 , 0
18.03 , 9.994 , 0.306 , -1.153 , 0
18.14 , 10.049 , 0.374 , -1.022 , 0
18.25 , 10.117 , 0.427 , -1.062 , 0

Pause

18.37 , 10.155 , 0.427 , -1.062 , 0
18.45 , 10.155 , 0.5 , -0.931 , 0
18.54 , 10.155 , 0.568 , -1.075 , 0
18.64 , 10.155 , 0.568 , -1.075 , 0
18.73 , 10.155 , 0.595 , -1.206 , 0
18.85 , 10.155 , 0.585 , -1.088 , 0
18.94 , 10.155 , 0.536 , -1.166 , 0
19.04 , 10.155 , 0.536 , -1.166 , 0
19.13 , 10.155 , 0.493 , -1.324 , 0
19.25 , 10.155 , 0.468 , -1.166 , 0
19.34 , 10.155 , 0.468 , -1.166 , 0
19.44 , 10.155 , 0.419 , -1.376 , 0
19.53 , 10.155 , 0.413 , -1.429 , 0
19.65 , 10.155 , 0.381 , -1.455 , 0
19.74 , 10.155 , 0.381 , -1.455 , 0
19.84 , 10.155 , 0.381 , -1.363 , 0
19.93 , 10.155 , 0.342 , -1.52 , 0
20.04 , 10.155 , 0.342 , -1.52 , 0
20.14 , 10.155 , 0.319 , -1.599 , 0
20.24 , 10.155 , 0.308 , -1.599 , 0
20.33 , 10.155 , 0.308 , -1.599 , 0
20.44 , 10.155 , 0.306 , -1.507 , 0
20.54 , 10.155 , 0.306 , -1.638 , 0
20.64 , 10.155 , 0.274 , -1.782 , 0
20.73 , 10.155 , 0.274 , -1.782 , 0
20.84 , 10.155 , 0.266 , -1.756 , 0
20.94 , 10.155 , 0.259 , -1.678 , 0
21.04 , 10.155 , 0.259 , -1.678 , 0
21.13 , 10.155 , 0.253 , -1.638 , 0
21.24 , 10.155 , 0.242 , -1.756 , 0
21.34 , 10.155 , 0.236 , -1.651 , 0
21.44 , 10.155 , 0.236 , -1.651 , 0
21.53 , 10.155 , 0.208 , -1.796 , 0
21.64 , 10.155 , 0.206 , -1.809 , 0
21.74 , 10.155 , 0.206 , -1.809 , 0
21.84 , 10.155 , 0.208 , -1.809 , 0
21.93 , 10.155 , 0.206 , -1.822 , 0
22.04 , 10.155 , 0.206 , -1.822 , 0
22.14 , 10.155 , 0.187 , -1.9 , 0
22.23 , 10.155 , 0.172 , -1.835 , 0
22.33 , 10.155 , 0.164 , -1.953 , 0
22.44 , 10.155 , 0.164 , -1.953 , 0
22.54 , 10.155 , 0.168 , -1.874 , 0
22.63 , 10.155 , 0.157 , -1.953 , 0
22.75 , 10.155 , 0.157 , -1.953 , 0
22.84 , 10.155 , 0.159 , -2.084 , 0
22.94 , 10.155 , 0.142 , -2.071 , 0
23.03 , 10.155 , 0.151 , -2.005 , 0
23.15 , 10.155 , 0.151 , -2.005 , 0
23.24 , 10.155 , 0.142 , -2.005 , 0
23.34 , 10.155 , 0.125 , -2.123 , 0
23.43 , 10.155 , 0.125 , -2.123 , 0
23.55 , 10.155 , 0.123 , -1.979 , 0
23.64 , 10.155 , 0.117 , -2.254 , 0
23.74 , 10.155 , 0.108 , -1.979 , 0
23.83 , 10.155 , 0.108 , -1.979 , 0
23.95 , 10.155 , 0.104 , -2.058 , 0
24.04 , 10.155 , 0.091 , -2.123 , 0
24.14 , 10.155 , 0.091 , -2.123 , 0
24.23 , 10.155 , 0.111 , -2.162 , 0
24.35 , 10.155 , 0.096 , -2.28 , 0
24.44 , 10.155 , 0.096 , -2.28 , 0
24.54 , 10.155 , 0.104 , -2.241 , 0
24.63 , 10.155 , 0.113 , -2.162 , 0
24.74 , 10.155 , 0.083 , -2.176 , 0
24.84 , 10.155 , 0.083 , -2.176 , 0
24.94 , 10.155 , 0.083 , -2.202 , 0
25.03 , 10.155 , 0.083 , -2.359 , 0
25.14 , 10.155 , 0.083 , -2.359 , 0
25.24 , 10.155 , 0.087 , -2.176 , 0
25.34 , 10.155 , 0.074 , -2.398 , 0
25.43 , 10.155 , 0.07 , -2.267 , 0
25.54 , 10.155 , 0.07 , -2.267 , 0
25.64 , 10.155 , 0.068 , -2.202 , 0
25.74 , 10.155 , 0.053 , -2.333 , 0
25.83 , 10.155 , 0.053 , -2.333 , 0
25.94 , 10.155 , 0.043 , -2.464 , 0
26.04 , 10.155 , 0.057 , -2.398 , 0
26.14 , 10.155 , 0.057 , -2.398 , 0
26.23 , 10.155 , 0.049 , -2.438 , 0
26.34 , 10.155 , 0.032 , -2.307 , 0
26.44 , 10.155 , 0.045 , -2.294 , 0
26.54 , 10.155 , 0.045 , -2.294 , 0
26.63 , 10.155 , 0.049 , -2.346 , 0
26.74 , 10.155 , 0.04 , -2.398 , 0
26.84 , 10.155 , 0.04 , -2.398 , 0
26.93 , 10.155 , 0.034 , -2.451 , 0
27.05 , 10.155 , 0.026 , -2.529 , 0
27.14 , 10.155 , 0.015 , -2.398 , 0
27.24 , 10.155 , 0.015 , -2.398 , 0
27.33 , 10.155 , 0.019 , -2.503 , 0
27.45 , 10.155 , 0.023 , -2.647 , 0
27.54 , 10.155 , 0.023 , -2.647 , 0
27.64 , 10.155 , 0.019 , -2.333 , 0
27.73 , 10.155 , 0.002 , -2.569 , 0
27.85 , 10.155 , 0.006 , -2.412 , 0
27.94 , 10.155 , 0.006 , -2.412 , 0
28.04 , 10.155 , 0.019 , -2.49 , 0
28.13 , 10.155 , 0.015 , -2.294 , 0
28.25 , 10.155 , 0.015 , -2.294 , 0
28.34 , 10.155 , 0.004 , -2.556 , 0
28.44 , 10.155 , 0.017 , -2.49 , 0
28.53 , 10.155 , 0.017 , -2.49 , 0
28.65 , 10.155 , 0.009 , -2.7 , 0
28.74 , 10.155 , 0.004 , -2.556 , 0
28.84 , 10.155 , 0.013 , -2.529 , 0
28.93 , 10.155 , 0.013 , -2.529 , 0
29.05 , 10.155 , 0.002 , -2.621 , 0
29.14 , 10.155 , 0.021 , -2.477 , 0
29.24 , 10.155 , 0.021 , -2.477 , 0
29.33 , 10.155 , 0.023 , -2.661 , 0
29.44 , 10.155 , 0.0 , -2.674 , 0
29.54 , 10.155 , 0.015 , -2.726 , 0
29.64 , 10.155 , 0.015 , -2.726 , 0
29.73 , 10.155 , 0.015 , -2.647 , 0
29.84 , 10.155 , 0.009 , -2.7 , 0
29.94 , 10.155 , 0.009 , -2.7 , 0
30.04 , 10.155 , 0.002 , -2.425 , 0
30.13 , 10.155 , 0.011 , -2.529 , 0
30.24 , 10.155 , 0.011 , -2.529 , 0
30.34 , 10.155 , 0.017 , -2.595 , 0
30.44 , 10.155 , 0.021 , -2.739 , 0
30.53 , 10.155 , 0.013 , -2.595 , 0

End Pause

30.64 , 10.177 , 0.013 , -2.595 , 0
30.74 , 10.226 , 0.023 , -2.87 , 0
30.84 , 10.282 , 0.017 , -2.49 , 0
30.96 , 10.355 , 0.017 , -2.49 , 0
31.04 , 10.393 , 0.017 , -2.359 , 0
31.14 , 10.449 , 0.087 , -2.32 , 0
31.27 , 10.524 , 0.221 , -1.913 , 0
31.33 , 10.56 , 0.221 , -1.913 , 0
31.44 , 10.615 , 0.355 , -1.756 , 0
31.55 , 10.684 , 0.515 , -1.625 , 0
31.63 , 10.727 , 0.515 , -1.625 , 0
31.73 , 10.782 , 0.608 , -1.547 , 0
31.86 , 10.852 , 0.727 , -1.297 , 0
31.94 , 10.894 , 0.727 , -1.297 , 0
32.03 , 10.95 , 0.836 , -1.166 , 0
32.13 , 11.005 , 0.936 , -1.206 , 0

Pause

32.24 , 11.04 , 1.021 , -0.577 , 0
32.34 , 11.04 , 1.021 , -0.577 , 0
32.43 , 11.04 , 1.112 , -0.878 , 0
32.55 , 11.04 , 1.178 , -0.878 , 0
32.64 , 11.04 , 1.178 , -0.878 , 0
32.74 , 11.04 , 1.178 , -0.852 , 0
32.83 , 11.04 , 1.119 , -0.97 , 0
32.95 , 11.04 , 1.085 , -1.022 , 0

Pause

33.04 , 11.04 , 1.085 , -1.022 , 0
33.14 , 11.04 , 1.063 , -1.101 , 0
33.23 , 11.04 , 1.021 , -1.101 , 0
33.35 , 11.04 , 1.021 , -1.101 , 0
33.44 , 11.04 , 1.006 , -1.193 , 0
33.54 , 11.04 , 0.972 , -1.114 , 0
33.63 , 11.04 , 0.951 , -1.075 , 0
33.75 , 11.04 , 0.951 , -1.075 , 0
33.84 , 11.04 , 0.948 , -1.271 , 0
33.94 , 11.04 , 0.927 , -1.402 , 0
34.03 , 11.04 , 0.927 , -1.402 , 0
34.14 , 11.04 , 0.925 , -1.442 , 0
34.24 , 11.04 , 0.908 , -1.219 , 0
34.34 , 11.04 , 0.908 , -1.219 , 0
34.43 , 11.04 , 0.902 , -1.324 , 0
34.54 , 11.04 , 0.885 , -1.507 , 0
34.64 , 11.04 , 0.87 , -1.547 , 0
34.74 , 11.04 , 0.87 , -1.547 , 0
34.83 , 11.04 , 0.865 , -1.612 , 0
34.94 , 11.04 , 0.861 , -1.52 , 0
35.04 , 11.04 , 0.861 , -1.52 , 0
35.14 , 11.04 , 0.836 , -1.743 , 0
35.23 , 11.04 , 0.834 , -1.481 , 0
35.34 , 11.04 , 0.823 , -1.573 , 0
35.44 , 11.04 , 0.823 , -1.573 , 0
35.54 , 11.04 , 0.804 , -1.494 , 0
35.63 , 11.04 , 0.812 , -1.704 , 0
35.74 , 11.04 , 0.812 , -1.704 , 0
35.84 , 11.04 , 0.789 , -1.691 , 0
35.94 , 11.04 , 0.783 , -1.796 , 0
36.03 , 11.04 , 0.783 , -1.796 , 0
36.14 , 11.04 , 0.774 , -1.769 , 0
36.24 , 11.04 , 0.763 , -1.73 , 0
36.33 , 11.04 , 0.774 , -1.769 , 0
36.45 , 11.04 , 0.774 , -1.769 , 0
36.54 , 11.04 , 0.753 , -1.664 , 0
36.64 , 11.04 , 0.768 , -1.651 , 0
36.73 , 11.04 , 0.768 , -1.651 , 0
36.85 , 11.04 , 0.751 , -1.822 , 0
36.94 , 11.04 , 0.746 , -1.809 , 0
37.04 , 11.04 , 0.736 , -1.664 , 0
37.13 , 11.04 , 0.736 , -1.664 , 0
37.25 , 11.04 , 0.738 , -1.73 , 0
37.34 , 11.04 , 0.732 , -1.782 , 0
37.44 , 11.04 , 0.732 , -1.782 , 0
37.53 , 11.04 , 0.727 , -1.809 , 0
37.65 , 11.04 , 0.732 , -1.874 , 0
37.74 , 11.04 , 0.732 , -1.874 , 0
37.84 , 11.04 , 0.702 , -1.979 , 0
37.93 , 11.04 , 0.712 , -1.874 , 0
38.05 , 11.04 , 0.702 , -1.861 , 0
38.14 , 11.04 , 0.702 , -1.861 , 0
38.24 , 11.04 , 0.691 , -1.913 , 0
38.33 , 11.04 , 0.695 , -1.979 , 0
38.45 , 11.04 , 0.695 , -1.979 , 0
38.54 , 11.04 , 0.7 , -1.769 , 0
38.64 , 11.04 , 0.674 , -1.861 , 0
38.73 , 11.04 , 0.687 , -2.084 , 0
38.84 , 11.04 , 0.687 , -2.084 , 0
38.94 , 11.04 , 0.68 , -2.058 , 0
39.04 , 11.04 , 0.68 , -1.809 , 0
39.13 , 11.04 , 0.68 , -1.809 , 0
39.24 , 11.04 , 0.666 , -2.215 , 0
39.34 , 11.04 , 0.663 , -2.11 , 0
39.44 , 11.04 , 0.657 , -2.031 , 0
39.53 , 11.04 , 0.657 , -2.031 , 0
39.64 , 11.04 , 0.651 , -2.058 , 0
39.74 , 11.04 , 0.655 , -1.992 , 0
39.84 , 11.04 , 0.655 , -1.992 , 0
39.93 , 11.04 , 0.646 , -2.189 , 0
40.04 , 11.04 , 0.655 , -2.267 , 0
40.14 , 11.04 , 0.655 , -2.267 , 0
40.24 , 11.04 , 0.632 , -1.927 , 0
40.33 , 11.04 , 0.638 , -1.769 , 0
40.44 , 11.04 , 0.646 , -2.045 , 0
40.54 , 11.04 , 0.646 , -2.045 , 0
40.64 , 11.04 , 0.627 , -2.202 , 0
40.73 , 11.04 , 0.617 , -2.503 , 0
40.84 , 11.04 , 0.617 , -2.503 , 0
40.94 , 11.04 , 0.632 , -2.162 , 0
41.04 , 11.04 , 0.621 , -1.927 , 0
41.13 , 11.04 , 0.615 , -2.058 , 0
41.24 , 11.04 , 0.615 , -2.058 , 0
41.34 , 11.04 , 0.617 , -1.913 , 0
41.43 , 11.04 , 0.615 , -1.94 , 0
41.55 , 11.04 , 0.615 , -1.94 , 0
41.64 , 11.04 , 0.6 , -2.149 , 0
41.74 , 11.04 , 0.595 , -2.333 , 0
41.83 , 11.04 , 0.595 , -2.333 , 0
41.95 , 11.04 , 0.593 , -1.927 , 0
42.04 , 11.04 , 0.602 , -2.202 , 0
42.14 , 11.04 , 0.608 , -2.307 , 0
42.23 , 11.04 , 0.608 , -2.307 , 0
42.35 , 11.04 , 0.598 , -2.267 , 0
42.44 , 11.04 , 0.581 , -2.045 , 0
42.54 , 11.04 , 0.581 , -2.045 , 0
42.63 , 11.04 , 0.587 , -1.992 , 0
42.75 , 11.04 , 0.589 , -2.412 , 0
42.84 , 11.04 , 0.587 , -1.94 , 0
42.94 , 11.04 , 0.587 , -1.94 , 0
43.03 , 11.04 , 0.576 , -2.123 , 0
43.15 , 11.04 , 0.57 , -2.189 , 0
43.24 , 11.04 , 0.57 , -2.189 , 0
43.34 , 11.04 , 0.57 , -2.202 , 0
43.43 , 11.04 , 0.572 , -2.215 , 0
43.54 , 11.04 , 0.576 , -2.11 , 0
43.64 , 11.04 , 0.576 , -2.11 , 0
43.74 , 11.04 , 0.564 , -2.294 , 0
43.83 , 11.04 , 0.553 , -2.398 , 0
43.94 , 11.04 , 0.553 , -2.398 , 0
44.04 , 11.04 , 0.564 , -2.398 , 0
44.14 , 11.04 , 0.542 , -2.176 , 0
44.23 , 11.04 , 0.542 , -2.176 , 0
44.34 , 11.04 , 0.553 , -2.241 , 0
44.44 , 11.04 , 0.557 , -2.32 , 0
44.54 , 11.04 , 0.553 , -2.451 , 0
44.63 , 11.04 , 0.553 , -2.451 , 0
44.74 , 11.04 , 0.551 , -2.241 , 0
44.84 , 11.04 , 0.536 , -2.438 , 0
44.94 , 11.04 , 0.536 , -2.438 , 0
45.03 , 11.04 , 0.557 , -2.228 , 0
45.14 , 11.04 , 0.536 , -2.529 , 0
45.24 , 11.04 , 0.536 , -2.412 , 0
45.34 , 11.04 , 0.536 , -2.412 , 0
45.43 , 11.04 , 0.525 , -2.438 , 0
45.54 , 11.04 , 0.532 , -2.294 , 0
45.64 , 11.04 , 0.532 , -2.294 , 0
45.73 , 11.04 , 0.53 , -2.307 , 0
45.83 , 11.04 , 0.532 , -2.477 , 0
45.94 , 11.04 , 0.532 , -2.477 , 0
46.04 , 11.04 , 0.542 , -2.294 , 0
46.13 , 11.04 , 0.532 , -2.477 , 0
46.25 , 11.04 , 0.527 , -2.543 , 0
46.34 , 11.04 , 0.527 , -2.543 , 0
46.44 , 11.04 , 0.523 , -2.451 , 0
46.53 , 11.04 , 0.527 , -2.346 , 0
46.63 , 11.04 , 0.527 , -2.346 , 0
46.74 , 11.04 , 0.515 , -2.516 , 0
46.84 , 11.04 , 0.512 , -2.556 , 0
46.93 , 11.04 , 0.517 , -2.529 , 0
47.05 , 11.04 , 0.517 , -2.529 , 0
47.14 , 11.04 , 0.495 , -2.529 , 0
47.24 , 11.04 , 0.498 , -2.49 , 0
47.33 , 11.04 , 0.498 , -2.49 , 0
47.45 , 11.04 , 0.5 , -2.634 , 0
47.54 , 11.04 , 0.506 , -2.503 , 0
47.64 , 11.04 , 0.506 , -2.503 , 0
47.73 , 11.04 , 0.493 , -2.241 , 0
47.85 , 11.04 , 0.5 , -2.569 , 0
47.94 , 11.04 , 0.508 , -2.608 , 0
48.04 , 11.04 , 0.508 , -2.608 , 0
48.13 , 11.04 , 0.502 , -2.739 , 0
48.24 , 11.04 , 0.495 , -2.529 , 0
48.34 , 11.04 , 0.495 , -2.529 , 0
48.44 , 11.04 , 0.493 , -2.529 , 0
48.53 , 11.04 , 0.481 , -2.569 , 0
48.64 , 11.04 , 0.487 , -2.713 , 0
48.74 , 11.04 , 0.487 , -2.713 , 0
48.84 , 11.04 , 0.5 , -2.569 , 0
48.93 , 11.04 , 0.487 , -2.674 , 0
49.04 , 11.04 , 0.487 , -2.674 , 0
49.14 , 11.04 , 0.491 , -2.713 , 0
49.24 , 11.04 , 0.474 , -2.582 , 0
49.33 , 11.04 , 0.474 , -2.674 , 0
49.44 , 11.04 , 0.474 , -2.674 , 0
49.54 , 11.04 , 0.478 , -2.634 , 0
49.64 , 11.04 , 0.47 , -2.91 , 0
49.73 , 11.04 , 0.47 , -2.91 , 0
49.84 , 11.04 , 0.472 , -2.647 , 0
49.94 , 11.04 , 0.472 , -2.674 , 0
50.04 , 11.04 , 0.472 , -2.674 , 0
50.13 , 11.04 , 0.457 , -2.7 , 0

End Pause

50.24 , 11.04 , 0.464 , -2.634 , 0
50.34 , 11.04 , 0.459 , -2.595 , 0
50.43 , 11.04 , 0.459 , -2.595 , 0
50.53 , 11.04 , 0.461 , -2.674 , 0
50.64 , 11.04 , 0.476 , -2.582 , 0
50.74 , 11.04 , 0.476 , -2.582 , 0
50.83 , 11.04 , 0.464 , -2.661 , 0
50.95 , 11.04 , 0.457 , -2.818 , 0
51.04 , 11.04 , 0.461 , -2.543 , 0
51.14 , 11.04 , 0.461 , -2.543 , 0
51.23 , 11.04 , 0.468 , -2.857 , 0
51.33 , 11.04 , 0.455 , -2.857 , 0
51.44 , 11.04 , 0.455 , -2.857 , 0
51.54 , 11.04 , 0.447 , -2.634 , 0
51.63 , 11.04 , 0.438 , -2.7 , 0
51.75 , 11.04 , 0.438 , -2.7 , 0
51.84 , 11.04 , 0.455 , -2.765 , 0
51.94 , 11.04 , 0.457 , -2.752 , 0
52.03 , 11.04 , 0.455 , -2.923 , 0
52.15 , 11.04 , 0.455 , -2.923 , 0
52.24 , 11.04 , 0.449 , -2.87 , 0
52.34 , 11.04 , 0.44 , -2.713 , 0
52.43 , 11.04 , 0.44 , -2.713 , 0
52.55 , 11.04 , 0.453 , -2.805 , 0
52.64 , 11.04 , 0.444 , -2.87 , 0
52.74 , 11.04 , 0.438 , -2.896 , 0
52.83 , 11.04 , 0.438 , -2.896 , 0
52.94 , 11.04 , 0.442 , -2.844 , 0
53.04 , 11.04 , 0.423 , -2.896 , 0
53.14 , 11.04 , 0.423 , -2.896 , 0
53.23 , 11.04 , 0.43 , -2.923 , 0
53.34 , 11.04 , 0.434 , -2.765 , 0
53.44 , 11.04 , 0.43 , -2.923 , 0
53.54 , 11.04 , 0.43 , -2.923 , 0
53.63 , 11.04 , 0.438 , -2.831 , 0
53.74 , 11.04 , 0.444 , -2.765 , 0
53.84 , 11.04 , 0.444 , -2.765 , 0
53.94 , 11.04 , 0.419 , -3.027 , 0
54.03 , 11.04 , 0.408 , -2.87 , 0
54.14 , 11.04 , 0.408 , -2.87 , 0
54.24 , 11.04 , 0.417 , -2.778 , 0
54.34 , 11.04 , 0.415 , -2.844 , 0
54.43 , 11.04 , 0.423 , -2.896 , 0
54.54 , 11.04 , 0.423 , -2.896 , 0
54.64 , 11.04 , 0.427 , -2.936 , 0
54.74 , 11.04 , 0.427 , -3.119 , 0
54.83 , 11.04 , 0.427 , -3.119 , 0
54.94 , 11.04 , 0.413 , -2.91 , 0
55.04 , 11.04 , 0.421 , -2.962 , 0
55.13 , 11.04 , 0.417 , -3.08 , 0
55.23 , 11.04 , 0.417 , -3.08 , 0
55.34 , 11.04 , 0.41 , -2.805 , 0
55.44 , 11.04 , 0.402 , -2.923 , 0
55.53 , 11.04 , 0.402 , -2.923 , 0
55.65 , 11.04 , 0.415 , -2.896 , 0
55.74 , 11.04 , 0.4 , -3.054 , 0
55.84 , 11.04 , 0.4 , -3.054 , 0
55.93 , 11.04 , 0.415 , -2.91 , 0
56.05 , 11.04 , 0.4 , -3.041 , 0
56.14 , 11.04 , 0.404 , -2.883 , 0
56.24 , 11.04 , 0.404 , -2.883 , 0
56.33 , 11.04 , 0.406 , -2.923 , 0
56.45 , 11.04 , 0.408 , -3.08 , 0
56.54 , 11.04 , 0.408 , -3.08 , 0
56.64 , 11.04 , 0.4 , -2.949 , 0
56.73 , 11.04 , 0.389 , -3.172 , 0
56.85 , 11.04 , 0.387 , -2.988 , 0
56.94 , 11.04 , 0.387 , -2.988 , 0
57.04 , 11.04 , 0.387 , -2.936 , 0
